{
  "AcquisitionMatrixPE": 74,
  "AcquisitionNumber": 1,
  "AcquisitionTime": "09:47:4.515000",
  "BandwidthPerPixelPhaseEncode": 27.579,
  "BaseResolution": 74,
  "BodyPartExamined": "HEAD",
  "CoilString": "t:HEA;HEP",
  "ConversionSoftware": "dcm2niix",
  "ConversionSoftwareVersion": "v1.0.20190410  GCC6.3.0",
  "DerivedVendorReportedEchoSpacing": 0.000489993,
  "DeviceSerialNumber": "35256",
  "DwellTime": 2.4e-06,
  "EchoTime": 0.03,
  "EffectiveEchoSpacing": 0.000489993,
  "FlipAngle": 70,
  "ImageOrientationPatientDICOM": [1, 0, 0, 0, 1, 0],
  "ImageType": [
    "ORIGINAL",
    "PRIMARY",
    "M",
    "ND",
    "NORM",
    "MOSAIC"
],
  "ImagingFrequency": 123.223,
  "InPlanePhaseEncodingDirectionDICOM": "COL",
  "InstitutionAddress": "East_Lee_St._2907_Greensboro_NC_US_27401",
  "InstitutionName": "JSNN",
  "InstitutionalDepartmentName": "Department",
  "MRAcquisitionType": "2D",
  "MagneticFieldStrength": 3,
  "Manufacturer": "Siemens",
  "ManufacturersModelName": "TrioTim",
  "Modality": "MR",
  "PartialFourier": 1,
  "PatientPosition": "HFS",
  "PercentPhaseFOV": 100,
  "PhaseEncodingDirection": "j-",
  "PhaseEncodingSteps": 74,
  "PhaseResolution": 1,
  "PixelBandwidth": 2815,
  "ProcedureStepDescription": "head_Cassidy",
  "ProtocolName": "RestingState",
  "PulseSequenceDetails": "%SiemensSeq%_ep2d_bold",
  "ReceiveCoilName": "HeadMatrix",
  "ReconMatrixPE": 74,
  "RepetitionTime": 2,
  "SAR": 0.110062,
  "ScanOptions": "FS",
  "ScanningSequence": "EP",
  "SequenceName": "_epfid2d1_74",
  "SequenceVariant": "SK",
  "SeriesDescription": "RestingState",
  "SeriesNumber": 3,
  "ShimSetting": [1349, 10467, -8701, 552, 18, -517, -187, 9],
  "SliceThickness": 4,
  "SliceTiming": [1.945, 1.8825, 1.82, 1.7575, 1.695, 1.6325, 1.57, 1.5075, 1.4425, 1.38, 1.3175, 1.255, 1.1925, 1.13, 1.0675, 1.005, 0.9425, 0.88, 0.8175, 0.7525, 0.69, 0.6275, 0.565, 0.5025, 0.44, 0.3775, 0.315, 0.2525, 0.19, 0.1275, 0.0625, 0],
  "SoftwareVersions": "syngo_MR_B19",
  "SpacingBetweenSlices": 4,
  "StationName": "JSNNMRI",
  "TaskName": "rest",
  "TotalReadoutTime": 0.0357695,
  "TxRefAmp": 264.213,
  "dcmmeta_affine": [
    [-2.972972869873047, 0.0, 0.0, 105.18071746826172],
    [0.0, 2.972972869873047, 0.0, -91.40774536132812],
    [0.0, 0.0, 4.0, -34.187950134277344],
    [0.0, 0.0, 0.0, 1.0]
],
  "dcmmeta_reorient_transform": [
    [0.0, -1.0, 0.0, 73.0],
    [1.0, 0.0, 0.0, 0.0],
    [0.0, 0.0, 1.0, 0.0],
    [0.0, 0.0, 0.0, 1.0]
],
  "dcmmeta_shape": [74, 74, 32, 300],
  "dcmmeta_slice_dim": 2,
  "dcmmeta_version": 0.6,
  "global": {
    "const": {
      "AcquisitionMatrix": [74, 0, 0, 74],
      "AngioFlag": "N",
      "BitsAllocated": 16,
      "BitsStored": 12,
      "BodyPartExamined": "HEAD",
      "Columns": 444,
      "EchoNumbers": 1,
      "EchoTime": 30.0,
      "EchoTrainLength": 1,
      "FlipAngle": 70.0,
      "HighBit": 11,
      "ImageOrientationPatient": [1.0, 0.0, 0.0, 0.0, 1.0, 0.0],
      "ImagePositionPatient": [-655.18069982529, -675.61925411224, -34.187950134277],
      "ImageType": [
        "ORIGINAL",
        "PRIMARY",
        "M",
        "ND",
        "NORM",
        "MOSAIC"
],
      "ImagedNucleus": "1H",
      "ImagingFrequency": 123.223064,
      "InPlanePhaseEncodingDirection": "COL",
      "MRAcquisitionType": "2D",
      "MagneticFieldStrength": 3.0,
      "Manufacturer": "SIEMENS",
      "ManufacturerModelName": "TrioTim",
      "Modality": "MR",
      "NumberOfAverages": 1.0,
      "NumberOfPhaseEncodingSteps": 74,
      "PercentPhaseFieldOfView": 100.0,
      "PercentSampling": 100.0,
      "PerformedProcedureStepStartTime": "090706.810000",
      "PhotometricInterpretation": "MONOCHROME2",
      "PixelBandwidth": 2815.0,
      "PixelRepresentation": 0,
      "PixelSpacing": [2.972972869873, 2.972972869873],
      "ProtocolName": "RestingState",
      "RepetitionTime": 2000.0,
      "Rows": 444,
      "SAR": 0.11006182637362,
      "SamplesPerPixel": 1,
      "ScanOptions": "FS",
      "ScanningSequence": "EP",
      "SequenceName": "*epfid2d1_74",
      "SequenceVariant": "SK",
      "SeriesDescription": "RestingState",
      "SeriesNumber": 3,
      "SeriesTime": "094803.263000",
      "SliceLocation": -34.187950134277,
      "SliceThickness": 4.0,
      "SmallestImagePixelValue": 0,
      "SoftwareVersions": "syngo MR B19",
      "SpacingBetweenSlices": 4.0,
      "SpecificCharacterSet": "ISO_IR 100",
      "StudyID": "1",
      "StudyTime": "090706.710000",
      "TransmitCoilName": "Body",
      "VariableFlipAngleFlag": "N",
      "WindowCenterWidthExplanation": "Algo1",
      "dBdt": 0.0},
    "slices": {}
  },
  "time": {
    "samples": {
      "AcquisitionNumber": [1, 2, 3, 4, 5, 6, 7, 8, 9, 10, 11, 12, 13, 14, 15, 16, 17, 18, 19, 20, 21, 22, 23, 24, 25, 26, 27, 28, 29, 30, 31, 32, 33, 34, 35, 36, 37, 38, 39, 40, 41, 42, 43, 44, 45, 46, 47, 48, 49, 50, 51, 52, 53, 54, 55, 56, 57, 58, 59, 60, 61, 62, 63, 64, 65, 66, 67, 68, 69, 70, 71, 72, 73, 74, 75, 76, 77, 78, 79, 80, 81, 82, 83, 84, 85, 86, 87, 88, 89, 90, 91, 92, 93, 94, 95, 96, 97, 98, 99, 100, 101, 102, 103, 104, 105, 106, 107, 108, 109, 110, 111, 112, 113, 114, 115, 116, 117, 118, 119, 120, 121, 122, 123, 124, 125, 126, 127, 128, 129, 130, 131, 132, 133, 134, 135, 136, 137, 138, 139, 140, 141, 142, 143, 144, 145, 146, 147, 148, 149, 150, 151, 152, 153, 154, 155, 156, 157, 158, 159, 160, 161, 162, 163, 164, 165, 166, 167, 168, 169, 170, 171, 172, 173, 174, 175, 176, 177, 178, 179, 180, 181, 182, 183, 184, 185, 186, 187, 188, 189, 190, 191, 192, 193, 194, 195, 196, 197, 198, 199, 200, 201, 202, 203, 204, 205, 206, 207, 208, 209, 210, 211, 212, 213, 214, 215, 216, 217, 218, 219, 220, 221, 222, 223, 224, 225, 226, 227, 228, 229, 230, 231, 232, 233, 234, 235, 236, 237, 238, 239, 240, 241, 242, 243, 244, 245, 246, 247, 248, 249, 250, 251, 252, 253, 254, 255, 256, 257, 258, 259, 260, 261, 262, 263, 264, 265, 266, 267, 268, 269, 270, 271, 272, 273, 274, 275, 276, 277, 278, 279, 280, 281, 282, 283, 284, 285, 286, 287, 288, 289, 290, 291, 292, 293, 294, 295, 296, 297, 298, 299, 300],
      "AcquisitionTime": ["094704.515000", "094706.522500", "094708.532500", "094710.540000", "094712.547500", "094714.555000", "094716.562500", "094718.572500", "094720.580000", "094722.587500", "094724.595000", "094726.605000", "094728.612500", "094730.620000", "094732.627500", "094734.635000", "094736.645000", "094738.652500", "094740.660000", "094742.667500", "094744.675000", "094746.685000", "094748.692500", "094750.700000", "094752.707500", "094754.717500", "094756.725000", "094758.732500", "094800.740000", "094802.747500", "094804.757500", "094806.765000", "094808.772500", "094810.780000", "094812.787500", "094814.797500", "094816.805000", "094818.812500", "094820.820000", "094822.830000", "094824.837500", "094826.845000", "094828.852500", "094830.860000", "094832.870000", "094834.877500", "094836.885000", "094838.892500", "094840.900000", "094842.910000", "094844.917500", "094846.925000", "094848.932500", "094850.940000", "094852.950000", "094854.957500", "094856.965000", "094858.972500", "094900.982500", "094902.990000", "094904.997500", "094907.005000", "094909.012500", "094911.022500", "094913.030000", "094915.037500", "094917.045000", "094919.052500", "094921.062500", "094923.070000", "094925.077500", "094927.085000", "094929.095000", "094931.102500", "094933.110000", "094935.117500", "094937.125000", "094939.135000", "094941.142500", "094943.150000", "094945.157500", "094947.165000", "094949.175000", "094951.182500", "094953.190000", "094955.197500", "094957.207500", "094959.215000", "095001.222500", "095003.230000", "095005.237500", "095007.247500", "095009.255000", "095011.262500", "095013.270000", "095015.277500", "095017.287500", "095019.295000", "095021.302500", "095023.310000", "095025.320000", "095027.327500", "095029.335000", "095031.342500", "095033.350000", "095035.360000", "095037.367500", "095039.375000", "095041.382500", "095043.390000", "095045.400000", "095047.407500", "095049.415000", "095051.422500", "095053.430000", "095055.440000", "095057.447500", "095059.455000", "095101.462500", "095103.472500", "095105.480000", "095107.487500", "095109.495000", "095111.502500", "095113.512500", "095115.520000", "095117.527500", "095119.535000", "095121.542500", "095123.552500", "095125.560000", "095127.567500", "095129.575000", "095131.585000", "095133.592500", "095135.600000", "095137.607500", "095139.615000", "095141.625000", "095143.632500", "095145.640000", "095147.647500", "095149.655000", "095151.665000", "095153.672500", "095155.680000", "095157.687500", "095159.697500", "095201.705000", "095203.712500", "095205.720000", "095207.727500", "095209.737500", "095211.745000", "095213.752500", "095215.760000", "095217.767500", "095219.777500", "095221.785000", "095223.792500", "095225.800000", "095227.807500", "095229.817500", "095231.825000", "095233.832500", "095235.840000", "095237.850000", "095239.857500", "095241.865000", "095243.872500", "095245.880000", "095247.890000", "095249.897500", "095251.905000", "095253.912500", "095255.920000", "095257.930000", "095259.937500", "095301.945000", "095303.952500", "095305.962500", "095307.970000", "095309.977500", "095311.985000", "095313.992500", "095316.002500", "095318.010000", "095320.017500", "095322.025000", "095324.032500", "095326.042500", "095328.050000", "095330.057500", "095332.065000", "095334.075000", "095336.082500", "095338.090000", "095340.097500", "095342.105000", "095344.115000", "095346.122500", "095348.130000", "095350.137500", "095352.145000", "095354.155000", "095356.162500", "095358.170000", "095400.177500", "095402.185000", "095404.195000", "095406.202500", "095408.210000", "095410.217500", "095412.227500", "095414.235000", "095416.242500", "095418.250000", "095420.257500", "095422.267500", "095424.275000", "095426.282500", "095428.290000", "095430.297500", "095432.307500", "095434.315000", "095436.322500", "095438.330000", "095440.340000", "095442.347500", "095444.355000", "095446.362500", "095448.370000", "095450.380000", "095452.387500", "095454.395000", "095456.402500", "095458.410000", "095500.420000", "095502.427500", "095504.435000", "095506.442500", "095508.452500", "095510.460000", "095512.467500", "095514.475000", "095516.482500", "095518.492500", "095520.500000", "095522.507500", "095524.515000", "095526.522500", "095528.532500", "095530.540000", "095532.547500", "095534.555000", "095536.562500", "095538.572500", "095540.580000", "095542.587500", "095544.595000", "095546.605000", "095548.612500", "095550.620000", "095552.627500", "095554.635000", "095556.645000", "095558.652500", "095600.660000", "095602.667500", "095604.675000", "095606.685000", "095608.692500", "095610.700000", "095612.707500", "095614.717500", "095616.725000", "095618.732500", "095620.740000", "095622.747500", "095624.757500", "095626.765000", "095628.772500", "095630.780000", "095632.787500", "095634.797500", "095636.805000", "095638.812500", "095640.820000", "095642.830000", "095644.837500", "095646.845000", "095648.852500", "095650.860000", "095652.870000", "095654.877500", "095656.885000", "095658.892500", "095700.900000", "095702.910000", "095704.917500"],
      "ContentTime": ["094803.266000", "094803.268000", "094803.271000", "094803.271000", "094803.273000", "094803.276000", "094803.278000", "094803.278000", "094803.281000", "094803.283000", "094803.286000", "094803.288000", "094803.288000", "094803.291000", "094803.293000", "094803.296000", "094803.296000", "094803.298000", "094803.301000", "094803.303000", "094803.303000", "094803.306000", "094803.308000", "094803.311000", "094803.313000", "094803.313000", "094803.316000", "094803.318000", "094803.321000", "094843.244000", "094843.264000", "094843.267000", "094843.269000", "094843.269000", "094843.272000", "094843.274000", "094843.277000", "094843.277000", "094843.279000", "094843.282000", "094843.284000", "094843.287000", "094843.287000", "094843.289000", "094843.292000", "094843.294000", "094843.294000", "094843.297000", "094843.299000", "094923.245000", "094923.247000", "094923.250000", "094923.252000", "094923.255000", "094923.255000", "094923.257000", "094923.260000", "094923.262000", "094923.262000", "094923.265000", "094923.267000", "094923.270000", "094923.270000", "094923.272000", "094923.275000", "094923.277000", "094923.277000", "094923.280000", "094923.282000", "095003.243000", "095003.245000", "095003.248000", "095003.250000", "095003.253000", "095003.253000", "095003.255000", "095003.258000", "095003.260000", "095003.260000", "095003.263000", "095003.265000", "095003.268000", "095003.268000", "095003.270000", "095003.273000", "095003.275000", "095003.275000", "095003.278000", "095003.280000", "095043.243000", "095043.246000", "095043.248000", "095043.251000", "095043.253000", "095043.253000", "095043.256000", "095043.258000", "095043.261000", "095043.261000", "095043.263000", "095043.266000", "095043.268000", "095043.271000", "095043.271000", "095043.273000", "095043.276000", "095043.278000", "095043.278000", "095043.281000", "095123.244000", "095123.266000", "095123.269000", "095123.269000", "095123.271000", "095123.274000", "095123.276000", "095123.276000", "095123.279000", "095123.281000", "095123.284000", "095123.286000", "095123.286000", "095123.289000", "095123.291000", "095123.294000", "095123.294000", "095123.296000", "095123.299000", "095123.301000", "095203.245000", "095203.247000", "095203.250000", "095203.252000", "095203.255000", "095203.255000", "095203.257000", "095203.260000", "095203.262000", "095203.262000", "095203.265000", "095203.267000", "095203.270000", "095203.270000", "095203.272000", "095203.275000", "095203.277000", "095203.280000", "095203.280000", "095203.282000", "095243.243000", "095243.245000", "095243.248000", "095243.250000", "095243.253000", "095243.253000", "095243.255000", "095243.258000", "095243.260000", "095243.260000", "095243.263000", "095243.265000", "095243.268000", "095243.268000", "095243.270000", "095243.273000", "095243.275000", "095243.275000", "095243.278000", "095243.280000", "095323.243000", "095323.246000", "095323.248000", "095323.251000", "095323.253000", "095323.253000", "095323.256000", "095323.258000", "095323.261000", "095323.261000", "095323.263000", "095323.266000", "095323.268000", "095323.271000", "095323.271000", "095323.273000", "095323.276000", "095323.278000", "095323.278000", "095323.281000", "095403.246000", "095403.299000", "095403.301000", "095403.301000", "095403.304000", "095403.306000", "095403.309000", "095403.309000", "095403.311000", "095403.314000", "095403.316000", "095403.319000", "095403.319000", "095403.321000", "095403.324000", "095403.326000", "095403.326000", "095403.329000", "095403.331000", "095403.334000", "095443.245000", "095443.247000", "095443.250000", "095443.252000", "095443.255000", "095443.255000", "095443.257000", "095443.260000", "095443.262000", "095443.265000", "095443.265000", "095443.267000", "095443.270000", "095443.272000", "095443.272000", "095443.275000", "095443.277000", "095443.280000", "095443.280000", "095443.282000", "095523.245000", "095523.245000", "095523.248000", "095523.250000", "095523.253000", "095523.253000", "095523.255000", "095523.258000", "095523.260000", "095523.263000", "095523.263000", "095523.265000", "095523.268000", "095523.270000", "095523.270000", "095523.273000", "095523.275000", "095523.278000", "095523.278000", "095523.280000", "095603.243000", "095603.246000", "095603.248000", "095603.251000", "095603.253000", "095603.253000", "095603.256000", "095603.258000", "095603.261000", "095603.261000", "095603.263000", "095603.266000", "095603.268000", "095603.268000", "095603.271000", "095603.273000", "095603.276000", "095603.276000", "095603.278000", "095603.281000", "095643.246000", "095643.271000", "095643.274000", "095643.276000", "095643.279000", "095643.279000", "095643.281000", "095643.284000", "095643.286000", "095643.286000", "095643.289000", "095643.291000", "095643.294000", "095643.296000", "095643.296000", "095643.299000", "095643.301000", "095643.304000", "095643.304000", "095643.306000", "095703.837000", "095703.837000", "095703.839000", "095703.842000", "095703.844000", "095703.847000", "095703.847000", "095703.849000", "095703.852000", "095703.854000", "095703.857000"],
      "InstanceCreationTime": ["094803.266000", "094803.268000", "094803.271000", "094803.271000", "094803.273000", "094803.276000", "094803.278000", "094803.278000", "094803.281000", "094803.283000", "094803.286000", "094803.288000", "094803.288000", "094803.291000", "094803.293000", "094803.296000", "094803.296000", "094803.298000", "094803.301000", "094803.303000", "094803.303000", "094803.306000", "094803.308000", "094803.311000", "094803.313000", "094803.313000", "094803.316000", "094803.318000", "094803.321000", "094843.244000", "094843.264000", "094843.267000", "094843.269000", "094843.269000", "094843.272000", "094843.274000", "094843.277000", "094843.277000", "094843.279000", "094843.282000", "094843.284000", "094843.287000", "094843.287000", "094843.289000", "094843.292000", "094843.294000", "094843.294000", "094843.297000", "094843.299000", "094923.245000", "094923.247000", "094923.250000", "094923.252000", "094923.255000", "094923.255000", "094923.257000", "094923.260000", "094923.262000", "094923.262000", "094923.265000", "094923.267000", "094923.270000", "094923.270000", "094923.272000", "094923.275000", "094923.277000", "094923.277000", "094923.280000", "094923.282000", "095003.243000", "095003.245000", "095003.248000", "095003.250000", "095003.253000", "095003.253000", "095003.255000", "095003.258000", "095003.260000", "095003.260000", "095003.263000", "095003.265000", "095003.268000", "095003.268000", "095003.270000", "095003.273000", "095003.275000", "095003.275000", "095003.278000", "095003.280000", "095043.243000", "095043.246000", "095043.248000", "095043.251000", "095043.253000", "095043.253000", "095043.256000", "095043.258000", "095043.261000", "095043.261000", "095043.263000", "095043.266000", "095043.268000", "095043.271000", "095043.271000", "095043.273000", "095043.276000", "095043.278000", "095043.278000", "095043.281000", "095123.244000", "095123.266000", "095123.269000", "095123.269000", "095123.271000", "095123.274000", "095123.276000", "095123.276000", "095123.279000", "095123.281000", "095123.284000", "095123.286000", "095123.286000", "095123.289000", "095123.291000", "095123.294000", "095123.294000", "095123.296000", "095123.299000", "095123.301000", "095203.245000", "095203.247000", "095203.250000", "095203.252000", "095203.255000", "095203.255000", "095203.257000", "095203.260000", "095203.262000", "095203.262000", "095203.265000", "095203.267000", "095203.270000", "095203.270000", "095203.272000", "095203.275000", "095203.277000", "095203.280000", "095203.280000", "095203.282000", "095243.243000", "095243.245000", "095243.248000", "095243.250000", "095243.253000", "095243.253000", "095243.255000", "095243.258000", "095243.260000", "095243.260000", "095243.263000", "095243.265000", "095243.268000", "095243.268000", "095243.270000", "095243.273000", "095243.275000", "095243.275000", "095243.278000", "095243.280000", "095323.243000", "095323.246000", "095323.248000", "095323.251000", "095323.253000", "095323.253000", "095323.256000", "095323.258000", "095323.261000", "095323.261000", "095323.263000", "095323.266000", "095323.268000", "095323.271000", "095323.271000", "095323.273000", "095323.276000", "095323.278000", "095323.278000", "095323.281000", "095403.246000", "095403.299000", "095403.301000", "095403.301000", "095403.304000", "095403.306000", "095403.309000", "095403.309000", "095403.311000", "095403.314000", "095403.316000", "095403.319000", "095403.319000", "095403.321000", "095403.324000", "095403.326000", "095403.326000", "095403.329000", "095403.331000", "095403.334000", "095443.245000", "095443.247000", "095443.250000", "095443.252000", "095443.255000", "095443.255000", "095443.257000", "095443.260000", "095443.262000", "095443.265000", "095443.265000", "095443.267000", "095443.270000", "095443.272000", "095443.272000", "095443.275000", "095443.277000", "095443.280000", "095443.280000", "095443.282000", "095523.245000", "095523.245000", "095523.248000", "095523.250000", "095523.253000", "095523.253000", "095523.255000", "095523.258000", "095523.260000", "095523.263000", "095523.263000", "095523.265000", "095523.268000", "095523.270000", "095523.270000", "095523.273000", "095523.275000", "095523.278000", "095523.278000", "095523.280000", "095603.243000", "095603.246000", "095603.248000", "095603.251000", "095603.253000", "095603.253000", "095603.256000", "095603.258000", "095603.261000", "095603.261000", "095603.263000", "095603.266000", "095603.268000", "095603.268000", "095603.271000", "095603.273000", "095603.276000", "095603.276000", "095603.278000", "095603.281000", "095643.246000", "095643.271000", "095643.274000", "095643.276000", "095643.279000", "095643.279000", "095643.281000", "095643.284000", "095643.286000", "095643.286000", "095643.289000", "095643.291000", "095643.294000", "095643.296000", "095643.296000", "095643.299000", "095643.301000", "095643.304000", "095643.304000", "095643.306000", "095703.837000", "095703.837000", "095703.839000", "095703.842000", "095703.844000", "095703.847000", "095703.847000", "095703.849000", "095703.852000", "095703.854000", "095703.857000"],
      "InstanceNumber": [1, 2, 3, 4, 5, 6, 7, 8, 9, 10, 11, 12, 13, 14, 15, 16, 17, 18, 19, 20, 21, 22, 23, 24, 25, 26, 27, 28, 29, 30, 31, 32, 33, 34, 35, 36, 37, 38, 39, 40, 41, 42, 43, 44, 45, 46, 47, 48, 49, 50, 51, 52, 53, 54, 55, 56, 57, 58, 59, 60, 61, 62, 63, 64, 65, 66, 67, 68, 69, 70, 71, 72, 73, 74, 75, 76, 77, 78, 79, 80, 81, 82, 83, 84, 85, 86, 87, 88, 89, 90, 91, 92, 93, 94, 95, 96, 97, 98, 99, 100, 101, 102, 103, 104, 105, 106, 107, 108, 109, 110, 111, 112, 113, 114, 115, 116, 117, 118, 119, 120, 121, 122, 123, 124, 125, 126, 127, 128, 129, 130, 131, 132, 133, 134, 135, 136, 137, 138, 139, 140, 141, 142, 143, 144, 145, 146, 147, 148, 149, 150, 151, 152, 153, 154, 155, 156, 157, 158, 159, 160, 161, 162, 163, 164, 165, 166, 167, 168, 169, 170, 171, 172, 173, 174, 175, 176, 177, 178, 179, 180, 181, 182, 183, 184, 185, 186, 187, 188, 189, 190, 191, 192, 193, 194, 195, 196, 197, 198, 199, 200, 201, 202, 203, 204, 205, 206, 207, 208, 209, 210, 211, 212, 213, 214, 215, 216, 217, 218, 219, 220, 221, 222, 223, 224, 225, 226, 227, 228, 229, 230, 231, 232, 233, 234, 235, 236, 237, 238, 239, 240, 241, 242, 243, 244, 245, 246, 247, 248, 249, 250, 251, 252, 253, 254, 255, 256, 257, 258, 259, 260, 261, 262, 263, 264, 265, 266, 267, 268, 269, 270, 271, 272, 273, 274, 275, 276, 277, 278, 279, 280, 281, 282, 283, 284, 285, 286, 287, 288, 289, 290, 291, 292, 293, 294, 295, 296, 297, 298, 299, 300],
      "LargestImagePixelValue": [1710, 2161, 1903, 2208, 1572, 1607, 1756, 2069, 1558, 1770, 1892, 1612, 1588, 1621, 1877, 1684, 1566, 1622, 1686, 1593, 1697, 1937, 1954, 1599, 2084, 1778, 1671, 1717, 1801, 1844, 1546, 1634, 2031, 1614, 1586, 1736, 1693, 1846, 1574, 1578, 1758, 1790, 1605, 2107, 1737, 1664, 1879, 2068, 1853, 1593, 1639, 1787, 2156, 1867, 1605, 1609, 2170, 1690, 1891, 1578, 2155, 1773, 1615, 1591, 1962, 1731, 1626, 1579, 1617, 2364, 1738, 1554, 1557, 1636, 2245, 1970, 1876, 1729, 1842, 1885, 1857, 1662, 2286, 1591, 2091, 1883, 1869, 1569, 1779, 1541, 1671, 2244, 1907, 1578, 1606, 1805, 2246, 1696, 1734, 1977, 1909, 2103, 1636, 1948, 1713, 2025, 1631, 1950, 1954, 2167, 1588, 1715, 1880, 1654, 1891, 1562, 2116, 2376, 1665, 1806, 1652, 1607, 1874, 1763, 2072, 2418, 1718, 1569, 2250, 1663, 2104, 1608, 2024, 1613, 2006, 1736, 1901, 1592, 2176, 1837, 2301, 1808, 1622, 1634, 2222, 1877, 1552, 2124, 1568, 1936, 1595, 1915, 1612, 2188, 1895, 1619, 1623, 2035, 2323, 1842, 1550, 1582, 2026, 2022, 1673, 1599, 1941, 1828, 1921, 1859, 1616, 1921, 1627, 2214, 2162, 2234, 2329, 1881, 1569, 1616, 1923, 1666, 1753, 1925, 1673, 1607, 1660, 2024, 1861, 1993, 1554, 1592, 1910, 1610, 1644, 2014, 1937, 1574, 1973, 2376, 1888, 1562, 1866, 2091, 1814, 1638, 2206, 2011, 2200, 1861, 1545, 1786, 2207, 2236, 1881, 1616, 1615, 2153, 1790, 2133, 1671, 2081, 1654, 2030, 2208, 1752, 1654, 2177, 1636, 1982, 1962, 1576, 1631, 2391, 1793, 1738, 1667, 2257, 1851, 2072, 1711, 2067, 1649, 1605, 2417, 1704, 2208, 2062, 1951, 1612, 2274, 2197, 1852, 1602, 1692, 2209, 1838, 1577, 1936, 2094, 1722, 1610, 2300, 1877, 1750, 1640, 2434, 2143, 1667, 1614, 1942, 1916, 1853, 1623, 2209, 1819, 2146, 1641, 1924, 1842, 2151, 1626, 1965, 1845, 2340, 1765, 1605, 1609, 1937, 1624, 1622, 2424, 1600, 1634, 1594, 2697, 2216, 1608, 1597, 1636],
      "WindowCenter": [656.0, 656.0, 655.0, 656.0, 649.0, 649.0, 653.0, 654.0, 648.0, 650.0, 652.0, 649.0, 649.0, 652.0, 654.0, 651.0, 651.0, 652.0, 653.0, 653.0, 654.0, 654.0, 656.0, 654.0, 655.0, 652.0, 652.0, 654.0, 653.0, 653.0, 651.0, 652.0, 654.0, 652.0, 652.0, 654.0, 654.0, 654.0, 653.0, 654.0, 654.0, 655.0, 653.0, 657.0, 654.0, 654.0, 656.0, 655.0, 653.0, 652.0, 653.0, 654.0, 656.0, 654.0, 653.0, 652.0, 656.0, 653.0, 655.0, 652.0, 656.0, 653.0, 652.0, 652.0, 656.0, 654.0, 655.0, 654.0, 654.0, 660.0, 656.0, 653.0, 655.0, 657.0, 661.0, 658.0, 656.0, 656.0, 656.0, 658.0, 656.0, 655.0, 659.0, 655.0, 659.0, 657.0, 656.0, 653.0, 655.0, 655.0, 655.0, 658.0, 656.0, 655.0, 655.0, 656.0, 659.0, 655.0, 656.0, 658.0, 656.0, 657.0, 655.0, 658.0, 656.0, 658.0, 655.0, 659.0, 659.0, 659.0, 654.0, 656.0, 658.0, 657.0, 660.0, 656.0, 659.0, 660.0, 655.0, 657.0, 656.0, 656.0, 659.0, 658.0, 658.0, 660.0, 656.0, 655.0, 660.0, 656.0, 658.0, 655.0, 658.0, 656.0, 659.0, 657.0, 659.0, 657.0, 661.0, 658.0, 660.0, 657.0, 657.0, 657.0, 661.0, 659.0, 657.0, 660.0, 656.0, 660.0, 658.0, 660.0, 658.0, 661.0, 658.0, 657.0, 658.0, 661.0, 662.0, 659.0, 656.0, 658.0, 661.0, 660.0, 658.0, 657.0, 660.0, 660.0, 661.0, 659.0, 658.0, 661.0, 661.0, 664.0, 661.0, 661.0, 661.0, 657.0, 655.0, 657.0, 657.0, 656.0, 657.0, 659.0, 659.0, 658.0, 658.0, 661.0, 661.0, 661.0, 657.0, 657.0, 660.0, 659.0, 660.0, 662.0, 661.0, 660.0, 662.0, 664.0, 661.0, 659.0, 662.0, 663.0, 661.0, 660.0, 665.0, 663.0, 663.0, 661.0, 659.0, 661.0, 663.0, 663.0, 661.0, 659.0, 659.0, 663.0, 660.0, 663.0, 659.0, 662.0, 660.0, 663.0, 663.0, 661.0, 660.0, 663.0, 660.0, 664.0, 661.0, 660.0, 660.0, 664.0, 660.0, 661.0, 660.0, 664.0, 662.0, 663.0, 661.0, 663.0, 662.0, 662.0, 666.0, 664.0, 665.0, 663.0, 662.0, 661.0, 663.0, 662.0, 660.0, 659.0, 660.0, 663.0, 661.0, 660.0, 663.0, 663.0, 662.0, 661.0, 665.0, 662.0, 662.0, 661.0, 666.0, 663.0, 659.0, 660.0, 663.0, 662.0, 662.0, 660.0, 664.0, 661.0, 663.0, 660.0, 663.0, 662.0, 663.0, 660.0, 664.0, 663.0, 665.0, 661.0, 661.0, 660.0, 664.0, 662.0, 661.0, 667.0, 662.0, 663.0, 663.0, 669.0, 665.0, 660.0, 660.0, 663.0],
      "WindowWidth": [1392.0, 1393.0, 1391.0, 1393.0, 1377.0, 1376.0, 1385.0, 1386.0, 1374.0, 1379.0, 1384.0, 1377.0, 1375.0, 1383.0, 1386.0, 1380.0, 1381.0, 1382.0, 1385.0, 1387.0, 1388.0, 1387.0, 1392.0, 1389.0, 1390.0, 1382.0, 1383.0, 1387.0, 1384.0, 1384.0, 1381.0, 1383.0, 1388.0, 1384.0, 1383.0, 1387.0, 1387.0, 1388.0, 1386.0, 1387.0, 1387.0, 1390.0, 1386.0, 1394.0, 1389.0, 1388.0, 1393.0, 1390.0, 1385.0, 1385.0, 1387.0, 1388.0, 1393.0, 1388.0, 1386.0, 1384.0, 1393.0, 1385.0, 1390.0, 1383.0, 1392.0, 1384.0, 1385.0, 1384.0, 1393.0, 1388.0, 1390.0, 1388.0, 1389.0, 1403.0, 1392.0, 1385.0, 1391.0, 1396.0, 1404.0, 1398.0, 1393.0, 1392.0, 1393.0, 1396.0, 1393.0, 1390.0, 1399.0, 1390.0, 1401.0, 1396.0, 1392.0, 1387.0, 1392.0, 1390.0, 1390.0, 1398.0, 1394.0, 1390.0, 1390.0, 1394.0, 1400.0, 1391.0, 1393.0, 1397.0, 1393.0, 1395.0, 1391.0, 1397.0, 1392.0, 1397.0, 1391.0, 1401.0, 1398.0, 1399.0, 1389.0, 1394.0, 1398.0, 1397.0, 1402.0, 1393.0, 1401.0, 1402.0, 1391.0, 1396.0, 1393.0, 1393.0, 1400.0, 1397.0, 1398.0, 1402.0, 1392.0, 1390.0, 1402.0, 1394.0, 1398.0, 1390.0, 1398.0, 1394.0, 1400.0, 1396.0, 1400.0, 1395.0, 1404.0, 1397.0, 1403.0, 1394.0, 1396.0, 1395.0, 1405.0, 1399.0, 1396.0, 1403.0, 1394.0, 1401.0, 1398.0, 1402.0, 1397.0, 1405.0, 1398.0, 1396.0, 1397.0, 1405.0, 1408.0, 1399.0, 1393.0, 1397.0, 1405.0, 1403.0, 1398.0, 1395.0, 1403.0, 1402.0, 1405.0, 1401.0, 1399.0, 1405.0, 1405.0, 1411.0, 1404.0, 1404.0, 1405.0, 1396.0, 1392.0, 1394.0, 1396.0, 1394.0, 1396.0, 1399.0, 1399.0, 1398.0, 1397.0, 1404.0, 1404.0, 1405.0, 1396.0, 1395.0, 1402.0, 1400.0, 1402.0, 1406.0, 1405.0, 1402.0, 1406.0, 1411.0, 1405.0, 1401.0, 1407.0, 1410.0, 1405.0, 1403.0, 1413.0, 1409.0, 1410.0, 1404.0, 1401.0, 1405.0, 1409.0, 1410.0, 1404.0, 1401.0, 1400.0, 1409.0, 1403.0, 1408.0, 1400.0, 1408.0, 1404.0, 1408.0, 1409.0, 1405.0, 1402.0, 1408.0, 1402.0, 1412.0, 1404.0, 1404.0, 1402.0, 1413.0, 1403.0, 1405.0, 1403.0, 1412.0, 1407.0, 1410.0, 1404.0, 1409.0, 1407.0, 1407.0, 1417.0, 1412.0, 1414.0, 1409.0, 1408.0, 1405.0, 1410.0, 1406.0, 1403.0, 1400.0, 1403.0, 1410.0, 1406.0, 1403.0, 1409.0, 1409.0, 1407.0, 1405.0, 1413.0, 1407.0, 1407.0, 1405.0, 1416.0, 1410.0, 1401.0, 1402.0, 1408.0, 1408.0, 1407.0, 1402.0, 1412.0, 1404.0, 1408.0, 1402.0, 1410.0, 1406.0, 1410.0, 1403.0, 1412.0, 1409.0, 1414.0, 1405.0, 1404.0, 1404.0, 1412.0, 1407.0, 1406.0, 1418.0, 1407.0, 1411.0, 1410.0, 1425.0, 1414.0, 1403.0, 1404.0, 1409.0]
    },
    "slices": {}
  }
}