{
  "AcquisitionMatrixPE": 74,
  "AcquisitionNumber": 1,
  "AcquisitionTime": "10:07:22.575000",
  "BandwidthPerPixelPhaseEncode": 27.579,
  "BaseResolution": 74,
  "BodyPartExamined": "HEAD",
  "CoilString": "t:HEA;HEP",
  "ConversionSoftware": "dcm2niix",
  "ConversionSoftwareVersion": "v1.0.20190410  GCC6.3.0",
  "DerivedVendorReportedEchoSpacing": 0.000489993,
  "DeviceSerialNumber": "35256",
  "DwellTime": 2.4e-06,
  "EchoTime": 0.03,
  "EffectiveEchoSpacing": 0.000489993,
  "FlipAngle": 70,
  "ImageOrientationPatientDICOM": [1, 0, 0, 0, 1, 0],
  "ImageType": [
    "ORIGINAL",
    "PRIMARY",
    "M",
    "ND",
    "NORM",
    "MOSAIC"
],
  "ImagingFrequency": 123.223,
  "InPlanePhaseEncodingDirectionDICOM": "COL",
  "InstitutionAddress": "East_Lee_St._2907_Greensboro_NC_US_27401",
  "InstitutionName": "JSNN",
  "InstitutionalDepartmentName": "Department",
  "MRAcquisitionType": "2D",
  "MagneticFieldStrength": 3,
  "Manufacturer": "Siemens",
  "ManufacturersModelName": "TrioTim",
  "Modality": "MR",
  "PartialFourier": 1,
  "PatientPosition": "HFS",
  "PercentPhaseFOV": 100,
  "PhaseEncodingDirection": "j-",
  "PhaseEncodingSteps": 74,
  "PhaseResolution": 1,
  "PixelBandwidth": 2815,
  "ProcedureStepDescription": "head_Cassidy",
  "ProtocolName": "RestingState",
  "PulseSequenceDetails": "%SiemensSeq%_ep2d_bold",
  "ReceiveCoilName": "HeadMatrix",
  "ReconMatrixPE": 74,
  "RepetitionTime": 2,
  "SAR": 0.121685,
  "ScanOptions": "FS",
  "ScanningSequence": "EP",
  "SequenceName": "_epfid2d1_74",
  "SequenceVariant": "SK",
  "SeriesDescription": "RestingState",
  "SeriesNumber": 3,
  "ShimSetting": [1393, 10572, -8734, 459, 140, -156, -87, -32],
  "SliceThickness": 4,
  "SliceTiming": [1.945, 1.8825, 1.82, 1.7575, 1.695, 1.63, 1.5675, 1.505, 1.4425, 1.38, 1.3175, 1.255, 1.1925, 1.13, 1.0675, 1.005, 0.94, 0.8775, 0.815, 0.7525, 0.69, 0.6275, 0.565, 0.5025, 0.44, 0.3775, 0.315, 0.25, 0.1875, 0.125, 0.0625, 0],
  "SoftwareVersions": "syngo_MR_B19",
  "SpacingBetweenSlices": 4,
  "StationName": "JSNNMRI",
  "TaskName": "rest",
  "TotalReadoutTime": 0.0357695,
  "TxRefAmp": 339.005,
  "dcmmeta_affine": [
    [-2.972972869873047, 0.0, 0.0, 105.18071746826172],
    [0.0, 2.972972869873047, 0.0, -95.10894775390625],
    [0.0, 0.0, 4.0, -42.8240966796875],
    [0.0, 0.0, 0.0, 1.0]
],
  "dcmmeta_reorient_transform": [
    [0.0, -1.0, 0.0, 73.0],
    [1.0, 0.0, 0.0, 0.0],
    [0.0, 0.0, 1.0, 0.0],
    [0.0, 0.0, 0.0, 1.0]
],
  "dcmmeta_shape": [74, 74, 32, 300],
  "dcmmeta_slice_dim": 2,
  "dcmmeta_version": 0.6,
  "global": {
    "const": {
      "AcquisitionMatrix": [74, 0, 0, 74],
      "AngioFlag": "N",
      "BitsAllocated": 16,
      "BitsStored": 12,
      "BodyPartExamined": "HEAD",
      "Columns": 444,
      "EchoNumbers": 1,
      "EchoTime": 30.0,
      "EchoTrainLength": 1,
      "FlipAngle": 70.0,
      "HighBit": 11,
      "ImageOrientationPatient": [1.0, 0.0, 0.0, 0.0, 1.0, 0.0],
      "ImagePositionPatient": [-655.18069982529, -671.91804981232, -42.824096679688],
      "ImageType": [
        "ORIGINAL",
        "PRIMARY",
        "M",
        "ND",
        "NORM",
        "MOSAIC"
],
      "ImagedNucleus": "1H",
      "ImagingFrequency": 123.223069,
      "InPlanePhaseEncodingDirection": "COL",
      "MRAcquisitionType": "2D",
      "MagneticFieldStrength": 3.0,
      "Manufacturer": "SIEMENS",
      "ManufacturerModelName": "TrioTim",
      "Modality": "MR",
      "NumberOfAverages": 1.0,
      "NumberOfPhaseEncodingSteps": 74,
      "PercentPhaseFieldOfView": 100.0,
      "PercentSampling": 100.0,
      "PerformedProcedureStepStartTime": "091610.516000",
      "PhotometricInterpretation": "MONOCHROME2",
      "PixelBandwidth": 2815.0,
      "PixelRepresentation": 0,
      "PixelSpacing": [2.972972869873, 2.972972869873],
      "ProtocolName": "RestingState",
      "RepetitionTime": 2000.0,
      "Rows": 444,
      "SAR": 0.12168515591909,
      "SamplesPerPixel": 1,
      "ScanOptions": "FS",
      "ScanningSequence": "EP",
      "SequenceName": "*epfid2d1_74",
      "SequenceVariant": "SK",
      "SeriesDescription": "RestingState",
      "SeriesNumber": 3,
      "SeriesTime": "100802.744000",
      "SliceLocation": -42.824096679688,
      "SliceThickness": 4.0,
      "SmallestImagePixelValue": 0,
      "SoftwareVersions": "syngo MR B19",
      "SpacingBetweenSlices": 4.0,
      "SpecificCharacterSet": "ISO_IR 100",
      "StudyID": "1",
      "StudyTime": "091610.451000",
      "TransmitCoilName": "Body",
      "VariableFlipAngleFlag": "N",
      "WindowCenterWidthExplanation": "Algo1",
      "dBdt": 0.0},
    "slices": {}
  },
  "time": {
    "samples": {
      "AcquisitionNumber": [1, 2, 3, 4, 5, 6, 7, 8, 9, 10, 11, 12, 13, 14, 15, 16, 17, 18, 19, 20, 21, 22, 23, 24, 25, 26, 27, 28, 29, 30, 31, 32, 33, 34, 35, 36, 37, 38, 39, 40, 41, 42, 43, 44, 45, 46, 47, 48, 49, 50, 51, 52, 53, 54, 55, 56, 57, 58, 59, 60, 61, 62, 63, 64, 65, 66, 67, 68, 69, 70, 71, 72, 73, 74, 75, 76, 77, 78, 79, 80, 81, 82, 83, 84, 85, 86, 87, 88, 89, 90, 91, 92, 93, 94, 95, 96, 97, 98, 99, 100, 101, 102, 103, 104, 105, 106, 107, 108, 109, 110, 111, 112, 113, 114, 115, 116, 117, 118, 119, 120, 121, 122, 123, 124, 125, 126, 127, 128, 129, 130, 131, 132, 133, 134, 135, 136, 137, 138, 139, 140, 141, 142, 143, 144, 145, 146, 147, 148, 149, 150, 151, 152, 153, 154, 155, 156, 157, 158, 159, 160, 161, 162, 163, 164, 165, 166, 167, 168, 169, 170, 171, 172, 173, 174, 175, 176, 177, 178, 179, 180, 181, 182, 183, 184, 185, 186, 187, 188, 189, 190, 191, 192, 193, 194, 195, 196, 197, 198, 199, 200, 201, 202, 203, 204, 205, 206, 207, 208, 209, 210, 211, 212, 213, 214, 215, 216, 217, 218, 219, 220, 221, 222, 223, 224, 225, 226, 227, 228, 229, 230, 231, 232, 233, 234, 235, 236, 237, 238, 239, 240, 241, 242, 243, 244, 245, 246, 247, 248, 249, 250, 251, 252, 253, 254, 255, 256, 257, 258, 259, 260, 261, 262, 263, 264, 265, 266, 267, 268, 269, 270, 271, 272, 273, 274, 275, 276, 277, 278, 279, 280, 281, 282, 283, 284, 285, 286, 287, 288, 289, 290, 291, 292, 293, 294, 295, 296, 297, 298, 299, 300],
      "AcquisitionTime": ["100722.575000", "100724.582500", "100726.590000", "100728.600000", "100730.607500", "100732.615000", "100734.622500", "100736.630000", "100738.640000", "100740.647500", "100742.655000", "100744.662500", "100746.672500", "100748.680000", "100750.687500", "100752.695000", "100754.702500", "100756.712500", "100758.720000", "100800.727500", "100802.735000", "100804.742500", "100806.752500", "100808.760000", "100810.767500", "100812.775000", "100814.782500", "100816.792500", "100818.800000", "100820.807500", "100822.815000", "100824.825000", "100826.832500", "100828.840000", "100830.847500", "100832.855000", "100834.865000", "100836.872500", "100838.880000", "100840.887500", "100842.895000", "100844.905000", "100846.912500", "100848.920000", "100850.927500", "100852.937500", "100854.945000", "100856.952500", "100858.960000", "100900.967500", "100902.977500", "100904.985000", "100906.992500", "100909.000000", "100911.007500", "100913.017500", "100915.025000", "100917.032500", "100919.040000", "100921.050000", "100923.057500", "100925.065000", "100927.072500", "100929.080000", "100931.090000", "100933.097500", "100935.105000", "100937.112500", "100939.120000", "100941.130000", "100943.137500", "100945.145000", "100947.152500", "100949.160000", "100951.170000", "100953.177500", "100955.185000", "100957.192500", "100959.202500", "101001.210000", "101003.217500", "101005.225000", "101007.232500", "101009.242500", "101011.250000", "101013.257500", "101015.265000", "101017.272500", "101019.282500", "101021.290000", "101023.297500", "101025.305000", "101027.315000", "101029.322500", "101031.330000", "101033.337500", "101035.345000", "101037.355000", "101039.362500", "101041.370000", "101043.377500", "101045.385000", "101047.395000", "101049.402500", "101051.410000", "101053.417500", "101055.427500", "101057.435000", "101059.442500", "101101.450000", "101103.457500", "101105.467500", "101107.475000", "101109.482500", "101111.490000", "101113.497500", "101115.507500", "101117.515000", "101119.522500", "101121.530000", "101123.537500", "101125.547500", "101127.555000", "101129.562500", "101131.570000", "101133.580000", "101135.587500", "101137.595000", "101139.602500", "101141.610000", "101143.620000", "101145.627500", "101147.635000", "101149.642500", "101151.650000", "101153.660000", "101155.667500", "101157.675000", "101159.682500", "101201.692500", "101203.700000", "101205.707500", "101207.715000", "101209.722500", "101211.732500", "101213.740000", "101215.747500", "101217.755000", "101219.762500", "101221.772500", "101223.780000", "101225.787500", "101227.795000", "101229.805000", "101231.812500", "101233.820000", "101235.827500", "101237.835000", "101239.845000", "101241.852500", "101243.860000", "101245.867500", "101247.875000", "101249.885000", "101251.892500", "101253.900000", "101255.907500", "101257.915000", "101259.925000", "101301.932500", "101303.940000", "101305.947500", "101307.957500", "101309.965000", "101311.972500", "101313.980000", "101315.987500", "101317.997500", "101320.005000", "101322.012500", "101324.020000", "101326.027500", "101328.037500", "101330.045000", "101332.052500", "101334.060000", "101336.070000", "101338.077500", "101340.085000", "101342.092500", "101344.100000", "101346.110000", "101348.117500", "101350.125000", "101352.132500", "101354.140000", "101356.150000", "101358.157500", "101400.165000", "101402.172500", "101404.182500", "101406.190000", "101408.197500", "101410.205000", "101412.212500", "101414.222500", "101416.230000", "101418.237500", "101420.245000", "101422.252500", "101424.262500", "101426.270000", "101428.277500", "101430.285000", "101432.295000", "101434.302500", "101436.310000", "101438.317500", "101440.325000", "101442.335000", "101444.342500", "101446.350000", "101448.357500", "101450.365000", "101452.375000", "101454.382500", "101456.390000", "101458.397500", "101500.405000", "101502.415000", "101504.422500", "101506.430000", "101508.437500", "101510.447500", "101512.455000", "101514.462500", "101516.470000", "101518.477500", "101520.487500", "101522.495000", "101524.502500", "101526.510000", "101528.517500", "101530.527500", "101532.535000", "101534.542500", "101536.550000", "101538.560000", "101540.567500", "101542.575000", "101544.582500", "101546.590000", "101548.600000", "101550.607500", "101552.615000", "101554.622500", "101556.630000", "101558.640000", "101600.647500", "101602.655000", "101604.662500", "101606.672500", "101608.680000", "101610.687500", "101612.695000", "101614.702500", "101616.712500", "101618.720000", "101620.727500", "101622.735000", "101624.742500", "101626.752500", "101628.760000", "101630.767500", "101632.775000", "101634.782500", "101636.792500", "101638.800000", "101640.807500", "101642.815000", "101644.825000", "101646.832500", "101648.840000", "101650.847500", "101652.855000", "101654.865000", "101656.872500", "101658.880000", "101700.887500", "101702.895000", "101704.905000", "101706.912500", "101708.920000", "101710.927500", "101712.937500", "101714.945000", "101716.952500", "101718.960000", "101720.967500", "101722.977500"],
      "ContentTime": ["100802.746000", "100802.749000", "100802.761000", "100802.764000", "100802.764000", "100802.766000", "100802.769000", "100802.771000", "100802.774000", "100802.774000", "100802.776000", "100802.779000", "100802.781000", "100802.781000", "100802.791000", "100802.796000", "100802.799000", "100802.801000", "100802.801000", "100802.804000", "100842.742000", "100842.744000", "100842.747000", "100842.749000", "100842.752000", "100842.752000", "100842.754000", "100842.757000", "100842.759000", "100842.759000", "100842.762000", "100842.764000", "100842.767000", "100842.767000", "100842.769000", "100842.772000", "100842.774000", "100842.774000", "100842.777000", "100842.779000", "100922.743000", "100922.745000", "100922.748000", "100922.750000", "100922.750000", "100922.753000", "100922.765000", "100922.768000", "100922.770000", "100922.770000", "100922.773000", "100922.775000", "100922.778000", "100922.778000", "100922.780000", "100922.783000", "100922.785000", "100922.785000", "100922.788000", "100922.790000", "101002.741000", "101002.743000", "101002.746000", "101002.748000", "101002.751000", "101002.751000", "101002.753000", "101002.756000", "101002.758000", "101002.758000", "101002.761000", "101002.763000", "101002.766000", "101002.766000", "101002.768000", "101002.771000", "101002.773000", "101002.776000", "101002.776000", "101002.778000", "101042.741000", "101042.744000", "101042.746000", "101042.749000", "101042.749000", "101042.751000", "101042.754000", "101042.756000", "101042.759000", "101042.759000", "101042.761000", "101042.764000", "101042.766000", "101042.766000", "101042.769000", "101042.771000", "101042.774000", "101042.779000", "101042.781000", "101042.784000", "101102.742000", "101102.744000", "101102.747000", "101102.749000", "101102.752000", "101102.752000", "101102.754000", "101102.757000", "101102.759000", "101102.759000", "101142.742000", "101142.745000", "101142.747000", "101142.750000", "101142.752000", "101142.752000", "101142.755000", "101142.757000", "101142.760000", "101142.760000", "101142.762000", "101142.765000", "101142.767000", "101142.767000", "101142.770000", "101142.772000", "101142.775000", "101142.775000", "101142.777000", "101142.780000", "101222.743000", "101222.745000", "101222.748000", "101222.750000", "101222.753000", "101222.753000", "101222.755000", "101222.758000", "101222.760000", "101222.760000", "101222.763000", "101222.765000", "101222.768000", "101222.768000", "101222.770000", "101222.773000", "101222.775000", "101222.775000", "101222.778000", "101222.780000", "101302.741000", "101302.743000", "101302.746000", "101302.748000", "101302.751000", "101302.751000", "101302.753000", "101302.756000", "101302.758000", "101302.758000", "101302.761000", "101302.763000", "101302.766000", "101302.766000", "101302.768000", "101302.771000", "101302.773000", "101302.773000", "101302.776000", "101302.778000", "101342.742000", "101342.744000", "101342.747000", "101342.749000", "101342.749000", "101342.752000", "101342.754000", "101342.757000", "101342.757000", "101342.759000", "101342.762000", "101342.764000", "101342.764000", "101342.767000", "101342.769000", "101342.772000", "101342.774000", "101342.774000", "101342.777000", "101342.779000", "101422.742000", "101422.745000", "101422.747000", "101422.750000", "101422.752000", "101422.752000", "101422.755000", "101422.757000", "101422.760000", "101422.760000", "101422.762000", "101422.765000", "101422.767000", "101422.767000", "101422.770000", "101422.772000", "101422.775000", "101422.775000", "101422.777000", "101422.780000", "101502.743000", "101502.745000", "101502.748000", "101502.750000", "101502.753000", "101502.753000", "101502.755000", "101502.758000", "101502.760000", "101502.760000", "101502.763000", "101502.765000", "101502.768000", "101502.768000", "101502.770000", "101502.773000", "101502.775000", "101502.775000", "101502.778000", "101502.780000", "101542.741000", "101542.743000", "101542.746000", "101542.748000", "101542.748000", "101542.751000", "101542.753000", "101542.756000", "101542.756000", "101542.758000", "101542.761000", "101542.763000", "101542.766000", "101542.766000", "101542.768000", "101542.771000", "101542.773000", "101542.773000", "101542.776000", "101542.778000", "101622.744000", "101622.744000", "101622.747000", "101622.749000", "101622.752000", "101622.752000", "101622.754000", "101622.757000", "101622.759000", "101622.759000", "101622.762000", "101622.764000", "101622.767000", "101622.767000", "101622.769000", "101622.772000", "101622.774000", "101622.774000", "101622.777000", "101622.779000", "101702.742000", "101702.745000", "101702.747000", "101702.750000", "101702.752000", "101702.752000", "101702.755000", "101702.757000", "101702.760000", "101702.760000", "101702.762000", "101702.765000", "101702.767000", "101702.767000", "101702.770000", "101702.772000", "101702.775000", "101702.775000", "101702.777000", "101702.780000", "101721.630000", "101721.632000", "101721.635000", "101721.637000", "101721.637000", "101721.640000", "101721.642000", "101721.645000", "101721.645000", "101721.647000"],
      "InstanceCreationTime": ["100802.746000", "100802.749000", "100802.761000", "100802.764000", "100802.764000", "100802.766000", "100802.769000", "100802.771000", "100802.774000", "100802.774000", "100802.776000", "100802.779000", "100802.781000", "100802.781000", "100802.791000", "100802.796000", "100802.799000", "100802.801000", "100802.801000", "100802.804000", "100842.742000", "100842.744000", "100842.747000", "100842.749000", "100842.752000", "100842.752000", "100842.754000", "100842.757000", "100842.759000", "100842.759000", "100842.762000", "100842.764000", "100842.767000", "100842.767000", "100842.769000", "100842.772000", "100842.774000", "100842.774000", "100842.777000", "100842.779000", "100922.743000", "100922.745000", "100922.748000", "100922.750000", "100922.750000", "100922.753000", "100922.765000", "100922.768000", "100922.770000", "100922.770000", "100922.773000", "100922.775000", "100922.778000", "100922.778000", "100922.780000", "100922.783000", "100922.785000", "100922.785000", "100922.788000", "100922.790000", "101002.741000", "101002.743000", "101002.746000", "101002.748000", "101002.751000", "101002.751000", "101002.753000", "101002.756000", "101002.758000", "101002.758000", "101002.761000", "101002.763000", "101002.766000", "101002.766000", "101002.768000", "101002.771000", "101002.773000", "101002.776000", "101002.776000", "101002.778000", "101042.741000", "101042.744000", "101042.746000", "101042.749000", "101042.749000", "101042.751000", "101042.754000", "101042.756000", "101042.759000", "101042.759000", "101042.761000", "101042.764000", "101042.766000", "101042.766000", "101042.769000", "101042.771000", "101042.774000", "101042.779000", "101042.781000", "101042.784000", "101102.742000", "101102.744000", "101102.747000", "101102.749000", "101102.752000", "101102.752000", "101102.754000", "101102.757000", "101102.759000", "101102.759000", "101142.742000", "101142.745000", "101142.747000", "101142.750000", "101142.752000", "101142.752000", "101142.755000", "101142.757000", "101142.760000", "101142.760000", "101142.762000", "101142.765000", "101142.767000", "101142.767000", "101142.770000", "101142.772000", "101142.775000", "101142.775000", "101142.777000", "101142.780000", "101222.743000", "101222.745000", "101222.748000", "101222.750000", "101222.753000", "101222.753000", "101222.755000", "101222.758000", "101222.760000", "101222.760000", "101222.763000", "101222.765000", "101222.768000", "101222.768000", "101222.770000", "101222.773000", "101222.775000", "101222.775000", "101222.778000", "101222.780000", "101302.741000", "101302.743000", "101302.746000", "101302.748000", "101302.751000", "101302.751000", "101302.753000", "101302.756000", "101302.758000", "101302.758000", "101302.761000", "101302.763000", "101302.766000", "101302.766000", "101302.768000", "101302.771000", "101302.773000", "101302.773000", "101302.776000", "101302.778000", "101342.742000", "101342.744000", "101342.747000", "101342.749000", "101342.749000", "101342.752000", "101342.754000", "101342.757000", "101342.757000", "101342.759000", "101342.762000", "101342.764000", "101342.764000", "101342.767000", "101342.769000", "101342.772000", "101342.774000", "101342.774000", "101342.777000", "101342.779000", "101422.742000", "101422.745000", "101422.747000", "101422.750000", "101422.752000", "101422.752000", "101422.755000", "101422.757000", "101422.760000", "101422.760000", "101422.762000", "101422.765000", "101422.767000", "101422.767000", "101422.770000", "101422.772000", "101422.775000", "101422.775000", "101422.777000", "101422.780000", "101502.743000", "101502.745000", "101502.748000", "101502.750000", "101502.753000", "101502.753000", "101502.755000", "101502.758000", "101502.760000", "101502.760000", "101502.763000", "101502.765000", "101502.768000", "101502.768000", "101502.770000", "101502.773000", "101502.775000", "101502.775000", "101502.778000", "101502.780000", "101542.741000", "101542.743000", "101542.746000", "101542.748000", "101542.748000", "101542.751000", "101542.753000", "101542.756000", "101542.756000", "101542.758000", "101542.761000", "101542.763000", "101542.766000", "101542.766000", "101542.768000", "101542.771000", "101542.773000", "101542.773000", "101542.776000", "101542.778000", "101622.744000", "101622.744000", "101622.747000", "101622.749000", "101622.752000", "101622.752000", "101622.754000", "101622.757000", "101622.759000", "101622.759000", "101622.762000", "101622.764000", "101622.767000", "101622.767000", "101622.769000", "101622.772000", "101622.774000", "101622.774000", "101622.777000", "101622.779000", "101702.742000", "101702.745000", "101702.747000", "101702.750000", "101702.752000", "101702.752000", "101702.755000", "101702.757000", "101702.760000", "101702.760000", "101702.762000", "101702.765000", "101702.767000", "101702.767000", "101702.770000", "101702.772000", "101702.775000", "101702.775000", "101702.777000", "101702.780000", "101721.630000", "101721.632000", "101721.635000", "101721.637000", "101721.637000", "101721.640000", "101721.642000", "101721.645000", "101721.645000", "101721.647000"],
      "InstanceNumber": [1, 2, 3, 4, 5, 6, 7, 8, 9, 10, 11, 12, 13, 14, 15, 16, 17, 18, 19, 20, 21, 22, 23, 24, 25, 26, 27, 28, 29, 30, 31, 32, 33, 34, 35, 36, 37, 38, 39, 40, 41, 42, 43, 44, 45, 46, 47, 48, 49, 50, 51, 52, 53, 54, 55, 56, 57, 58, 59, 60, 61, 62, 63, 64, 65, 66, 67, 68, 69, 70, 71, 72, 73, 74, 75, 76, 77, 78, 79, 80, 81, 82, 83, 84, 85, 86, 87, 88, 89, 90, 91, 92, 93, 94, 95, 96, 97, 98, 99, 100, 101, 102, 103, 104, 105, 106, 107, 108, 109, 110, 111, 112, 113, 114, 115, 116, 117, 118, 119, 120, 121, 122, 123, 124, 125, 126, 127, 128, 129, 130, 131, 132, 133, 134, 135, 136, 137, 138, 139, 140, 141, 142, 143, 144, 145, 146, 147, 148, 149, 150, 151, 152, 153, 154, 155, 156, 157, 158, 159, 160, 161, 162, 163, 164, 165, 166, 167, 168, 169, 170, 171, 172, 173, 174, 175, 176, 177, 178, 179, 180, 181, 182, 183, 184, 185, 186, 187, 188, 189, 190, 191, 192, 193, 194, 195, 196, 197, 198, 199, 200, 201, 202, 203, 204, 205, 206, 207, 208, 209, 210, 211, 212, 213, 214, 215, 216, 217, 218, 219, 220, 221, 222, 223, 224, 225, 226, 227, 228, 229, 230, 231, 232, 233, 234, 235, 236, 237, 238, 239, 240, 241, 242, 243, 244, 245, 246, 247, 248, 249, 250, 251, 252, 253, 254, 255, 256, 257, 258, 259, 260, 261, 262, 263, 264, 265, 266, 267, 268, 269, 270, 271, 272, 273, 274, 275, 276, 277, 278, 279, 280, 281, 282, 283, 284, 285, 286, 287, 288, 289, 290, 291, 292, 293, 294, 295, 296, 297, 298, 299, 300],
      "LargestImagePixelValue": [2494, 2785, 1555, 1645, 2335, 1609, 1735, 2546, 1620, 1986, 2355, 1605, 2145, 2297, 2147, 1637, 2655, 1655, 2300, 1579, 1927, 2470, 1686, 2425, 1606, 2130, 1986, 1814, 1689, 2305, 1601, 1663, 2505, 1570, 2102, 1544, 2393, 1864, 2784, 2557, 1826, 2449, 2158, 1749, 2053, 1644, 1819, 1598, 1675, 1829, 1646, 2033, 1623, 2648, 1573, 2268, 1934, 2689, 1969, 2689, 1575, 2536, 1600, 2320, 1527, 2297, 1628, 2074, 1595, 1658, 1609, 1655, 2390, 1633, 2204, 1628, 2242, 2081, 1604, 2222, 2048, 1613, 1671, 2354, 1531, 2161, 2028, 1552, 2271, 1614, 2583, 1591, 2211, 1874, 1620, 1600, 2510, 2799, 1654, 1636, 1612, 2401, 2801, 1960, 2560, 1602, 1591, 1586, 1875, 1620, 2010, 1621, 1722, 1567, 1769, 1606, 2658, 1670, 1826, 2602, 1866, 1691, 1611, 2050, 1703, 1600, 2639, 1544, 2226, 1584, 2644, 1588, 2469, 1582, 2132, 1982, 2315, 1593, 2549, 1597, 1669, 1989, 1713, 1742, 2442, 1721, 1665, 2714, 1590, 2258, 2821, 1620, 2654, 1562, 1695, 1735, 1627, 2310, 1623, 2232, 1614, 2292, 1553, 1675, 2570, 1578, 2213, 1596, 2400, 1612, 2636, 1614, 2759, 2894, 1602, 1643, 1669, 1577, 2284, 2721, 1947, 2233, 2669, 1564, 2003, 2181, 1569, 1763, 2860, 1600, 1886, 2554, 1535, 1584, 1999, 2199, 1604, 1794, 2399, 1620, 2035, 1607, 2117, 1575, 1626, 2399, 1604, 1771, 2266, 1599, 2617, 1600, 1681, 1540, 1612, 1639, 2589, 1662, 1557, 2304, 1678, 1682, 2926, 1636, 1656, 2095, 2608, 1663, 1678, 1556, 1661, 1705, 1681, 1746, 1734, 1688, 2340, 1742, 1629, 2362, 1717, 1907, 1617, 1744, 1686, 1749, 2457, 1711, 1707, 2472, 2425, 1711, 1725, 2066, 1694, 1748, 2370, 1636, 1749, 2266, 1697, 1789, 1715, 1731, 2161, 1674, 2087, 1743, 2153, 1674, 1643, 2139, 1695, 1997, 2065, 1748, 2224, 1894, 1724, 2423, 1644, 1715, 2712, 1670, 1691, 2147, 1717, 1895, 1682, 1668, 1773, 1806, 1957, 1694, 2463, 1704, 1824, 3172, 1629, 1711],
      "WindowCenter": [627.0, 623.0, 615.0, 615.0, 620.0, 615.0, 616.0, 623.0, 616.0, 618.0, 620.0, 615.0, 619.0, 619.0, 620.0, 615.0, 622.0, 616.0, 619.0, 616.0, 618.0, 621.0, 616.0, 620.0, 615.0, 619.0, 617.0, 616.0, 614.0, 618.0, 614.0, 616.0, 621.0, 616.0, 621.0, 617.0, 624.0, 620.0, 625.0, 623.0, 618.0, 621.0, 619.0, 616.0, 617.0, 614.0, 616.0, 615.0, 615.0, 617.0, 617.0, 622.0, 618.0, 624.0, 617.0, 623.0, 620.0, 623.0, 619.0, 622.0, 615.0, 622.0, 615.0, 620.0, 615.0, 621.0, 617.0, 619.0, 616.0, 617.0, 617.0, 618.0, 623.0, 619.0, 624.0, 619.0, 624.0, 622.0, 619.0, 622.0, 621.0, 618.0, 618.0, 623.0, 619.0, 622.0, 622.0, 617.0, 623.0, 618.0, 625.0, 619.0, 622.0, 620.0, 618.0, 619.0, 624.0, 630.0, 621.0, 619.0, 619.0, 625.0, 627.0, 620.0, 621.0, 615.0, 615.0, 615.0, 620.0, 618.0, 621.0, 621.0, 622.0, 623.0, 623.0, 622.0, 628.0, 622.0, 622.0, 627.0, 623.0, 621.0, 619.0, 624.0, 621.0, 620.0, 626.0, 619.0, 625.0, 621.0, 627.0, 620.0, 626.0, 620.0, 625.0, 623.0, 625.0, 619.0, 625.0, 620.0, 620.0, 623.0, 621.0, 622.0, 625.0, 622.0, 621.0, 627.0, 619.0, 626.0, 626.0, 619.0, 624.0, 618.0, 619.0, 620.0, 619.0, 625.0, 619.0, 624.0, 620.0, 624.0, 620.0, 621.0, 627.0, 620.0, 625.0, 621.0, 626.0, 621.0, 628.0, 621.0, 630.0, 634.0, 622.0, 622.0, 622.0, 622.0, 629.0, 628.0, 622.0, 623.0, 625.0, 619.0, 622.0, 623.0, 620.0, 622.0, 628.0, 620.0, 622.0, 625.0, 620.0, 620.0, 623.0, 625.0, 620.0, 622.0, 627.0, 622.0, 624.0, 621.0, 626.0, 622.0, 622.0, 627.0, 623.0, 625.0, 628.0, 622.0, 628.0, 622.0, 624.0, 623.0, 624.0, 627.0, 631.0, 625.0, 624.0, 630.0, 626.0, 625.0, 631.0, 623.0, 622.0, 624.0, 627.0, 621.0, 621.0, 619.0, 622.0, 623.0, 623.0, 623.0, 624.0, 624.0, 628.0, 625.0, 623.0, 629.0, 627.0, 633.0, 627.0, 628.0, 625.0, 626.0, 630.0, 625.0, 623.0, 626.0, 626.0, 622.0, 621.0, 623.0, 622.0, 623.0, 627.0, 622.0, 623.0, 628.0, 624.0, 624.0, 624.0, 626.0, 631.0, 626.0, 627.0, 624.0, 627.0, 625.0, 624.0, 628.0, 625.0, 626.0, 628.0, 625.0, 628.0, 626.0, 625.0, 629.0, 625.0, 624.0, 630.0, 623.0, 623.0, 627.0, 624.0, 626.0, 624.0, 625.0, 626.0, 626.0, 628.0, 625.0, 630.0, 626.0, 628.0, 637.0, 626.0, 624.0],
      "WindowWidth": [1326.0, 1317.0, 1301.0, 1299.0, 1310.0, 1299.0, 1302.0, 1316.0, 1302.0, 1305.0, 1309.0, 1299.0, 1308.0, 1309.0, 1309.0, 1301.0, 1314.0, 1303.0, 1309.0, 1303.0, 1305.0, 1312.0, 1302.0, 1311.0, 1299.0, 1307.0, 1303.0, 1302.0, 1298.0, 1306.0, 1297.0, 1301.0, 1312.0, 1302.0, 1313.0, 1304.0, 1319.0, 1312.0, 1321.0, 1316.0, 1307.0, 1313.0, 1308.0, 1303.0, 1304.0, 1299.0, 1301.0, 1300.0, 1301.0, 1305.0, 1305.0, 1315.0, 1306.0, 1319.0, 1305.0, 1316.0, 1311.0, 1318.0, 1308.0, 1315.0, 1301.0, 1314.0, 1301.0, 1311.0, 1300.0, 1312.0, 1304.0, 1308.0, 1304.0, 1305.0, 1306.0, 1307.0, 1316.0, 1309.0, 1319.0, 1310.0, 1319.0, 1315.0, 1309.0, 1315.0, 1312.0, 1306.0, 1307.0, 1318.0, 1309.0, 1316.0, 1315.0, 1305.0, 1317.0, 1308.0, 1321.0, 1309.0, 1314.0, 1310.0, 1307.0, 1310.0, 1320.0, 1335.0, 1313.0, 1310.0, 1309.0, 1322.0, 1327.0, 1311.0, 1313.0, 1301.0, 1300.0, 1301.0, 1311.0, 1307.0, 1313.0, 1314.0, 1316.0, 1320.0, 1318.0, 1317.0, 1328.0, 1317.0, 1315.0, 1328.0, 1318.0, 1313.0, 1309.0, 1319.0, 1314.0, 1311.0, 1324.0, 1311.0, 1322.0, 1313.0, 1325.0, 1312.0, 1326.0, 1312.0, 1321.0, 1318.0, 1321.0, 1310.0, 1321.0, 1311.0, 1312.0, 1318.0, 1313.0, 1316.0, 1322.0, 1316.0, 1313.0, 1326.0, 1310.0, 1324.0, 1325.0, 1310.0, 1321.0, 1307.0, 1310.0, 1311.0, 1309.0, 1321.0, 1310.0, 1319.0, 1311.0, 1319.0, 1312.0, 1313.0, 1326.0, 1312.0, 1322.0, 1314.0, 1324.0, 1313.0, 1328.0, 1315.0, 1334.0, 1342.0, 1316.0, 1316.0, 1315.0, 1317.0, 1331.0, 1331.0, 1317.0, 1318.0, 1324.0, 1310.0, 1316.0, 1319.0, 1312.0, 1315.0, 1330.0, 1312.0, 1317.0, 1324.0, 1313.0, 1311.0, 1319.0, 1322.0, 1313.0, 1317.0, 1328.0, 1317.0, 1321.0, 1314.0, 1326.0, 1318.0, 1316.0, 1327.0, 1319.0, 1323.0, 1329.0, 1316.0, 1330.0, 1317.0, 1320.0, 1320.0, 1322.0, 1330.0, 1337.0, 1323.0, 1321.0, 1334.0, 1326.0, 1323.0, 1337.0, 1320.0, 1316.0, 1320.0, 1328.0, 1315.0, 1313.0, 1310.0, 1317.0, 1319.0, 1318.0, 1320.0, 1321.0, 1320.0, 1329.0, 1323.0, 1319.0, 1333.0, 1327.0, 1345.0, 1331.0, 1331.0, 1325.0, 1325.0, 1336.0, 1324.0, 1319.0, 1324.0, 1327.0, 1316.0, 1314.0, 1320.0, 1317.0, 1319.0, 1328.0, 1318.0, 1319.0, 1330.0, 1322.0, 1322.0, 1321.0, 1327.0, 1337.0, 1327.0, 1328.0, 1322.0, 1328.0, 1324.0, 1323.0, 1331.0, 1324.0, 1326.0, 1329.0, 1323.0, 1330.0, 1327.0, 1323.0, 1333.0, 1324.0, 1322.0, 1335.0, 1321.0, 1320.0, 1328.0, 1321.0, 1326.0, 1323.0, 1323.0, 1326.0, 1326.0, 1330.0, 1324.0, 1335.0, 1326.0, 1331.0, 1354.0, 1328.0, 1321.0]
    },
    "slices": {}
  }
}