{
  "AcquisitionMatrixPE": 74,
  "AcquisitionNumber": 1,
  "AcquisitionTime": "12:56:21.310000",
  "BandwidthPerPixelPhaseEncode": 27.579,
  "BaseResolution": 74,
  "BodyPartExamined": "HEAD",
  "CoilString": "t:HEA;HEP",
  "ConversionSoftware": "dcm2niix",
  "ConversionSoftwareVersion": "v1.0.20190410  GCC6.3.0",
  "DerivedVendorReportedEchoSpacing": 0.000489993,
  "DeviceSerialNumber": "35256",
  "DwellTime": 2.4e-06,
  "EchoTime": 0.03,
  "EffectiveEchoSpacing": 0.000489993,
  "FlipAngle": 70,
  "ImageOrientationPatientDICOM": [1, 0, 0, 0, 1, 0],
  "ImageType": [
    "ORIGINAL",
    "PRIMARY",
    "M",
    "ND",
    "NORM",
    "MOSAIC"
],
  "ImagingFrequency": 123.223,
  "InPlanePhaseEncodingDirectionDICOM": "COL",
  "InstitutionAddress": "East_Lee_St._2907_Greensboro_NC_US_27401",
  "InstitutionName": "JSNN",
  "InstitutionalDepartmentName": "Department",
  "MRAcquisitionType": "2D",
  "MagneticFieldStrength": 3,
  "Manufacturer": "Siemens",
  "ManufacturersModelName": "TrioTim",
  "Modality": "MR",
  "PartialFourier": 1,
  "PatientPosition": "HFS",
  "PercentPhaseFOV": 100,
  "PhaseEncodingDirection": "j-",
  "PhaseEncodingSteps": 74,
  "PhaseResolution": 1,
  "PixelBandwidth": 2815,
  "ProcedureStepDescription": "head_Cassidy",
  "ProtocolName": "RestingState",
  "PulseSequenceDetails": "%SiemensSeq%_ep2d_bold",
  "ReceiveCoilName": "HeadMatrix",
  "ReconMatrixPE": 74,
  "RepetitionTime": 2,
  "SAR": 0.126481,
  "ScanOptions": "FS",
  "ScanningSequence": "EP",
  "SequenceName": "_epfid2d1_74",
  "SequenceVariant": "SK",
  "SeriesDescription": "RestingState",
  "SeriesNumber": 3,
  "ShimSetting": [1393, 10705, -8849, 517, -230, -666, -355, -54],
  "SliceThickness": 4,
  "SliceTiming": [1.945, 1.8825, 1.82, 1.7575, 1.695, 1.6325, 1.57, 1.5075, 1.445, 1.38, 1.3175, 1.255, 1.1925, 1.13, 1.0675, 1.005, 0.9425, 0.88, 0.8175, 0.755, 0.69, 0.6275, 0.565, 0.5025, 0.44, 0.3775, 0.315, 0.2525, 0.19, 0.1275, 0.065, 0],
  "SoftwareVersions": "syngo_MR_B19",
  "SpacingBetweenSlices": 4,
  "StationName": "JSNNMRI",
  "TaskName": "rest",
  "TotalReadoutTime": 0.0357695,
  "TxRefAmp": 309.279,
  "dcmmeta_affine": [
    [-2.972972869873047, 0.0, 0.0, 105.18071746826172],
    [0.0, 2.972972869873047, 0.0, -94.49208068847656],
    [0.0, 0.0, 4.0, -84.15422058105469],
    [0.0, 0.0, 0.0, 1.0]
],
  "dcmmeta_reorient_transform": [
    [0.0, -1.0, 0.0, 73.0],
    [1.0, 0.0, 0.0, 0.0],
    [0.0, 0.0, 1.0, 0.0],
    [0.0, 0.0, 0.0, 1.0]
],
  "dcmmeta_shape": [74, 74, 32, 300],
  "dcmmeta_slice_dim": 2,
  "dcmmeta_version": 0.6,
  "global": {
    "const": {
      "AcquisitionMatrix": [74, 0, 0, 74],
      "AngioFlag": "N",
      "BitsAllocated": 16,
      "BitsStored": 12,
      "BodyPartExamined": "HEAD",
      "Columns": 444,
      "EchoNumbers": 1,
      "EchoTime": 30.0,
      "EchoTrainLength": 1,
      "FlipAngle": 70.0,
      "HighBit": 11,
      "ImageOrientationPatient": [1.0, 0.0, 0.0, 0.0, 1.0, 0.0],
      "ImagePositionPatient": [-655.18069982529, -672.53491687775, -84.154220581055],
      "ImageType": [
        "ORIGINAL",
        "PRIMARY",
        "M",
        "ND",
        "NORM",
        "MOSAIC"
],
      "ImagedNucleus": "1H",
      "ImagingFrequency": 123.223137,
      "InPlanePhaseEncodingDirection": "COL",
      "MRAcquisitionType": "2D",
      "MagneticFieldStrength": 3.0,
      "Manufacturer": "SIEMENS",
      "ManufacturerModelName": "TrioTim",
      "Modality": "MR",
      "NumberOfAverages": 1.0,
      "NumberOfPhaseEncodingSteps": 74,
      "PercentPhaseFieldOfView": 100.0,
      "PercentSampling": 100.0,
      "PerformedProcedureStepStartTime": "120744.125000",
      "PhotometricInterpretation": "MONOCHROME2",
      "PixelBandwidth": 2815.0,
      "PixelRepresentation": 0,
      "PixelSpacing": [2.972972869873, 2.972972869873],
      "ProtocolName": "RestingState",
      "RepetitionTime": 2000.0,
      "Rows": 444,
      "SAR": 0.12648055203945,
      "SamplesPerPixel": 1,
      "ScanOptions": "FS",
      "ScanningSequence": "EP",
      "SequenceName": "*epfid2d1_74",
      "SequenceVariant": "SK",
      "SeriesDescription": "RestingState",
      "SeriesNumber": 3,
      "SeriesTime": "125704.838000",
      "SliceLocation": -84.154220581055,
      "SliceThickness": 4.0,
      "SmallestImagePixelValue": 0,
      "SoftwareVersions": "syngo MR B19",
      "SpacingBetweenSlices": 4.0000001230548,
      "SpecificCharacterSet": "ISO_IR 100",
      "StudyID": "1",
      "StudyTime": "120744.057000",
      "TransmitCoilName": "Body",
      "VariableFlipAngleFlag": "N",
      "WindowCenterWidthExplanation": "Algo1",
      "dBdt": 0.0},
    "slices": {}
  },
  "time": {
    "samples": {
      "AcquisitionNumber": [1, 2, 3, 4, 5, 6, 7, 8, 9, 10, 11, 12, 13, 14, 15, 16, 17, 18, 19, 20, 21, 22, 23, 24, 25, 26, 27, 28, 29, 30, 31, 32, 33, 34, 35, 36, 37, 38, 39, 40, 41, 42, 43, 44, 45, 46, 47, 48, 49, 50, 51, 52, 53, 54, 55, 56, 57, 58, 59, 60, 61, 62, 63, 64, 65, 66, 67, 68, 69, 70, 71, 72, 73, 74, 75, 76, 77, 78, 79, 80, 81, 82, 83, 84, 85, 86, 87, 88, 89, 90, 91, 92, 93, 94, 95, 96, 97, 98, 99, 100, 101, 102, 103, 104, 105, 106, 107, 108, 109, 110, 111, 112, 113, 114, 115, 116, 117, 118, 119, 120, 121, 122, 123, 124, 125, 126, 127, 128, 129, 130, 131, 132, 133, 134, 135, 136, 137, 138, 139, 140, 141, 142, 143, 144, 145, 146, 147, 148, 149, 150, 151, 152, 153, 154, 155, 156, 157, 158, 159, 160, 161, 162, 163, 164, 165, 166, 167, 168, 169, 170, 171, 172, 173, 174, 175, 176, 177, 178, 179, 180, 181, 182, 183, 184, 185, 186, 187, 188, 189, 190, 191, 192, 193, 194, 195, 196, 197, 198, 199, 200, 201, 202, 203, 204, 205, 206, 207, 208, 209, 210, 211, 212, 213, 214, 215, 216, 217, 218, 219, 220, 221, 222, 223, 224, 225, 226, 227, 228, 229, 230, 231, 232, 233, 234, 235, 236, 237, 238, 239, 240, 241, 242, 243, 244, 245, 246, 247, 248, 249, 250, 251, 252, 253, 254, 255, 256, 257, 258, 259, 260, 261, 262, 263, 264, 265, 266, 267, 268, 269, 270, 271, 272, 273, 274, 275, 276, 277, 278, 279, 280, 281, 282, 283, 284, 285, 286, 287, 288, 289, 290, 291, 292, 293, 294, 295, 296, 297, 298, 299, 300],
      "AcquisitionTime": ["125621.310000", "125623.320000", "125625.327500", "125627.335000", "125629.342500", "125631.350000", "125633.360000", "125635.367500", "125637.375000", "125639.382500", "125641.390000", "125643.400000", "125645.407500", "125647.415000", "125649.422500", "125651.430000", "125653.440000", "125655.447500", "125657.455000", "125659.462500", "125701.472500", "125703.480000", "125705.487500", "125707.495000", "125709.502500", "125711.512500", "125713.520000", "125715.527500", "125717.535000", "125719.542500", "125721.552500", "125723.560000", "125725.567500", "125727.575000", "125729.585000", "125731.592500", "125733.600000", "125735.607500", "125737.615000", "125739.625000", "125741.632500", "125743.640000", "125745.647500", "125747.655000", "125749.665000", "125751.672500", "125753.680000", "125755.687500", "125757.697500", "125759.705000", "125801.712500", "125803.720000", "125805.727500", "125807.737500", "125809.745000", "125811.752500", "125813.760000", "125815.767500", "125817.777500", "125819.785000", "125821.792500", "125823.800000", "125825.807500", "125827.817500", "125829.825000", "125831.832500", "125833.840000", "125835.850000", "125837.857500", "125839.865000", "125841.872500", "125843.880000", "125845.890000", "125847.897500", "125849.905000", "125851.912500", "125853.920000", "125855.930000", "125857.937500", "125859.945000", "125901.952500", "125903.962500", "125905.970000", "125907.977500", "125909.985000", "125911.992500", "125914.002500", "125916.010000", "125918.017500", "125920.025000", "125922.032500", "125924.042500", "125926.050000", "125928.057500", "125930.065000", "125932.075000", "125934.082500", "125936.090000", "125938.097500", "125940.105000", "125942.115000", "125944.122500", "125946.130000", "125948.137500", "125950.145000", "125952.155000", "125954.162500", "125956.170000", "125958.177500", "130000.185000", "130002.195000", "130004.202500", "130006.210000", "130008.217500", "130010.227500", "130012.235000", "130014.242500", "130016.250000", "130018.257500", "130020.267500", "130022.275000", "130024.282500", "130026.290000", "130028.297500", "130030.307500", "130032.315000", "130034.322500", "130036.330000", "130038.340000", "130040.347500", "130042.355000", "130044.362500", "130046.370000", "130048.380000", "130050.387500", "130052.395000", "130054.402500", "130056.410000", "130058.420000", "130100.427500", "130102.435000", "130104.442500", "130106.452500", "130108.460000", "130110.467500", "130112.475000", "130114.482500", "130116.492500", "130118.500000", "130120.507500", "130122.515000", "130124.522500", "130126.532500", "130128.540000", "130130.547500", "130132.555000", "130134.565000", "130136.572500", "130138.580000", "130140.587500", "130142.595000", "130144.605000", "130146.612500", "130148.620000", "130150.627500", "130152.635000", "130154.645000", "130156.652500", "130158.660000", "130200.667500", "130202.675000", "130204.685000", "130206.692500", "130208.700000", "130210.707500", "130212.717500", "130214.725000", "130216.732500", "130218.740000", "130220.747500", "130222.757500", "130224.765000", "130226.772500", "130228.780000", "130230.787500", "130232.797500", "130234.805000", "130236.812500", "130238.820000", "130240.830000", "130242.837500", "130244.845000", "130246.852500", "130248.860000", "130250.870000", "130252.877500", "130254.885000", "130256.892500", "130258.900000", "130300.910000", "130302.917500", "130304.925000", "130306.932500", "130308.942500", "130310.950000", "130312.957500", "130314.965000", "130316.972500", "130318.982500", "130320.990000", "130322.997500", "130325.005000", "130327.012500", "130329.022500", "130331.030000", "130333.037500", "130335.045000", "130337.052500", "130339.062500", "130341.070000", "130343.077500", "130345.085000", "130347.095000", "130349.102500", "130351.110000", "130353.117500", "130355.125000", "130357.135000", "130359.142500", "130401.150000", "130403.157500", "130405.165000", "130407.175000", "130409.182500", "130411.190000", "130413.197500", "130415.207500", "130417.215000", "130419.222500", "130421.230000", "130423.237500", "130425.247500", "130427.255000", "130429.262500", "130431.270000", "130433.277500", "130435.287500", "130437.295000", "130439.302500", "130441.310000", "130443.320000", "130445.327500", "130447.335000", "130449.342500", "130451.350000", "130453.360000", "130455.367500", "130457.375000", "130459.382500", "130501.390000", "130503.400000", "130505.407500", "130507.415000", "130509.422500", "130511.430000", "130513.440000", "130515.447500", "130517.455000", "130519.462500", "130521.472500", "130523.480000", "130525.487500", "130527.495000", "130529.502500", "130531.512500", "130533.520000", "130535.527500", "130537.535000", "130539.542500", "130541.552500", "130543.560000", "130545.567500", "130547.575000", "130549.585000", "130551.592500", "130553.600000", "130555.607500", "130557.615000", "130559.625000", "130601.632500", "130603.640000", "130605.647500", "130607.655000", "130609.665000", "130611.672500", "130613.680000", "130615.687500", "130617.697500", "130619.705000", "130621.712500"],
      "ContentTime": ["125704.843000", "125704.846000", "125704.846000", "125704.848000", "125704.851000", "125704.853000", "125704.853000", "125704.856000", "125704.858000", "125704.861000", "125704.861000", "125704.863000", "125704.866000", "125704.868000", "125704.871000", "125704.876000", "125704.878000", "125704.881000", "125704.883000", "125704.883000", "125704.886000", "125704.888000", "125744.829000", "125744.832000", "125744.834000", "125744.837000", "125744.837000", "125744.839000", "125744.842000", "125744.844000", "125744.844000", "125744.847000", "125744.849000", "125744.852000", "125744.854000", "125744.854000", "125744.857000", "125744.859000", "125744.862000", "125744.862000", "125744.864000", "125744.867000", "125824.830000", "125824.832000", "125824.835000", "125824.837000", "125824.837000", "125824.840000", "125824.842000", "125824.845000", "125824.847000", "125824.847000", "125824.850000", "125824.852000", "125824.855000", "125824.855000", "125824.857000", "125824.860000", "125824.892000", "125824.895000", "125824.897000", "125824.897000", "125904.830000", "125904.833000", "125904.835000", "125904.838000", "125904.838000", "125904.840000", "125904.843000", "125904.845000", "125904.845000", "125904.848000", "125904.850000", "125904.853000", "125904.853000", "125904.855000", "125904.858000", "125904.860000", "125904.863000", "125904.863000", "125904.865000", "125904.868000", "125944.828000", "125944.831000", "125944.833000", "125944.836000", "125944.836000", "125944.838000", "125944.841000", "125944.843000", "125944.843000", "125944.846000", "125944.848000", "125944.851000", "125944.851000", "125944.853000", "125944.856000", "125944.858000", "125944.861000", "125944.861000", "125944.863000", "125944.866000", "130024.829000", "130024.831000", "130024.834000", "130024.836000", "130024.836000", "130024.839000", "130024.841000", "130024.844000", "130024.844000", "130024.846000", "130024.849000", "130024.851000", "130024.854000", "130024.854000", "130024.856000", "130024.859000", "130024.861000", "130024.861000", "130024.864000", "130024.866000", "130104.832000", "130104.832000", "130104.835000", "130104.837000", "130104.840000", "130104.840000", "130104.842000", "130104.845000", "130104.847000", "130104.847000", "130104.850000", "130104.852000", "130104.855000", "130104.855000", "130104.857000", "130104.860000", "130104.862000", "130104.865000", "130104.865000", "130104.867000", "130144.830000", "130144.833000", "130144.835000", "130144.838000", "130144.840000", "130144.840000", "130144.843000", "130144.845000", "130144.848000", "130144.848000", "130144.850000", "130144.853000", "130144.855000", "130144.855000", "130144.858000", "130144.860000", "130144.863000", "130144.863000", "130144.865000", "130144.868000", "130224.828000", "130224.831000", "130224.833000", "130224.836000", "130224.838000", "130224.838000", "130224.841000", "130224.843000", "130224.846000", "130224.846000", "130224.848000", "130224.851000", "130224.853000", "130224.853000", "130224.856000", "130224.858000", "130224.861000", "130224.861000", "130224.863000", "130224.866000", "130304.829000", "130304.831000", "130304.834000", "130304.836000", "130304.839000", "130304.839000", "130304.841000", "130304.844000", "130304.846000", "130304.846000", "130304.849000", "130304.851000", "130304.854000", "130304.854000", "130304.856000", "130304.859000", "130304.861000", "130304.861000", "130304.864000", "130304.866000", "130344.830000", "130344.832000", "130344.835000", "130344.837000", "130344.840000", "130344.840000", "130344.842000", "130344.845000", "130344.847000", "130344.850000", "130344.850000", "130344.852000", "130344.855000", "130344.857000", "130344.857000", "130344.860000", "130344.862000", "130344.865000", "130344.865000", "130344.867000", "130424.830000", "130424.833000", "130424.835000", "130424.838000", "130424.840000", "130424.840000", "130424.843000", "130424.845000", "130424.848000", "130424.848000", "130424.850000", "130424.853000", "130424.855000", "130424.855000", "130424.858000", "130424.860000", "130424.863000", "130424.863000", "130424.865000", "130424.868000", "130504.828000", "130504.831000", "130504.833000", "130504.836000", "130504.836000", "130504.838000", "130504.841000", "130504.843000", "130504.846000", "130504.846000", "130504.848000", "130504.851000", "130504.853000", "130504.853000", "130504.856000", "130504.858000", "130504.861000", "130504.861000", "130504.863000", "130504.866000", "130544.829000", "130544.831000", "130544.834000", "130544.836000", "130544.839000", "130544.839000", "130544.841000", "130544.844000", "130544.846000", "130544.846000", "130544.849000", "130544.851000", "130544.854000", "130544.854000", "130544.856000", "130544.859000", "130544.861000", "130544.861000", "130544.864000", "130544.866000", "130620.714000", "130620.714000", "130620.717000", "130620.719000", "130620.722000", "130620.724000", "130620.724000", "130620.727000", "130620.729000", "130620.732000", "130620.734000", "130620.737000", "130620.737000", "130620.739000", "130620.742000", "130620.744000", "130620.744000", "130620.747000"],
      "InstanceCreationTime": ["125704.843000", "125704.846000", "125704.846000", "125704.848000", "125704.851000", "125704.853000", "125704.853000", "125704.856000", "125704.858000", "125704.861000", "125704.861000", "125704.863000", "125704.866000", "125704.868000", "125704.871000", "125704.876000", "125704.878000", "125704.881000", "125704.883000", "125704.883000", "125704.886000", "125704.888000", "125744.829000", "125744.832000", "125744.834000", "125744.837000", "125744.837000", "125744.839000", "125744.842000", "125744.844000", "125744.844000", "125744.847000", "125744.849000", "125744.852000", "125744.854000", "125744.854000", "125744.857000", "125744.859000", "125744.862000", "125744.862000", "125744.864000", "125744.867000", "125824.830000", "125824.832000", "125824.835000", "125824.837000", "125824.837000", "125824.840000", "125824.842000", "125824.845000", "125824.847000", "125824.847000", "125824.850000", "125824.852000", "125824.855000", "125824.855000", "125824.857000", "125824.860000", "125824.892000", "125824.895000", "125824.897000", "125824.897000", "125904.830000", "125904.833000", "125904.835000", "125904.838000", "125904.838000", "125904.840000", "125904.843000", "125904.845000", "125904.845000", "125904.848000", "125904.850000", "125904.853000", "125904.853000", "125904.855000", "125904.858000", "125904.860000", "125904.863000", "125904.863000", "125904.865000", "125904.868000", "125944.828000", "125944.831000", "125944.833000", "125944.836000", "125944.836000", "125944.838000", "125944.841000", "125944.843000", "125944.843000", "125944.846000", "125944.848000", "125944.851000", "125944.851000", "125944.853000", "125944.856000", "125944.858000", "125944.861000", "125944.861000", "125944.863000", "125944.866000", "130024.829000", "130024.831000", "130024.834000", "130024.836000", "130024.836000", "130024.839000", "130024.841000", "130024.844000", "130024.844000", "130024.846000", "130024.849000", "130024.851000", "130024.854000", "130024.854000", "130024.856000", "130024.859000", "130024.861000", "130024.861000", "130024.864000", "130024.866000", "130104.832000", "130104.832000", "130104.835000", "130104.837000", "130104.840000", "130104.840000", "130104.842000", "130104.845000", "130104.847000", "130104.847000", "130104.850000", "130104.852000", "130104.855000", "130104.855000", "130104.857000", "130104.860000", "130104.862000", "130104.865000", "130104.865000", "130104.867000", "130144.830000", "130144.833000", "130144.835000", "130144.838000", "130144.840000", "130144.840000", "130144.843000", "130144.845000", "130144.848000", "130144.848000", "130144.850000", "130144.853000", "130144.855000", "130144.855000", "130144.858000", "130144.860000", "130144.863000", "130144.863000", "130144.865000", "130144.868000", "130224.828000", "130224.831000", "130224.833000", "130224.836000", "130224.838000", "130224.838000", "130224.841000", "130224.843000", "130224.846000", "130224.846000", "130224.848000", "130224.851000", "130224.853000", "130224.853000", "130224.856000", "130224.858000", "130224.861000", "130224.861000", "130224.863000", "130224.866000", "130304.829000", "130304.831000", "130304.834000", "130304.836000", "130304.839000", "130304.839000", "130304.841000", "130304.844000", "130304.846000", "130304.846000", "130304.849000", "130304.851000", "130304.854000", "130304.854000", "130304.856000", "130304.859000", "130304.861000", "130304.861000", "130304.864000", "130304.866000", "130344.830000", "130344.832000", "130344.835000", "130344.837000", "130344.840000", "130344.840000", "130344.842000", "130344.845000", "130344.847000", "130344.850000", "130344.850000", "130344.852000", "130344.855000", "130344.857000", "130344.857000", "130344.860000", "130344.862000", "130344.865000", "130344.865000", "130344.867000", "130424.830000", "130424.833000", "130424.835000", "130424.838000", "130424.840000", "130424.840000", "130424.843000", "130424.845000", "130424.848000", "130424.848000", "130424.850000", "130424.853000", "130424.855000", "130424.855000", "130424.858000", "130424.860000", "130424.863000", "130424.863000", "130424.865000", "130424.868000", "130504.828000", "130504.831000", "130504.833000", "130504.836000", "130504.836000", "130504.838000", "130504.841000", "130504.843000", "130504.846000", "130504.846000", "130504.848000", "130504.851000", "130504.853000", "130504.853000", "130504.856000", "130504.858000", "130504.861000", "130504.861000", "130504.863000", "130504.866000", "130544.829000", "130544.831000", "130544.834000", "130544.836000", "130544.839000", "130544.839000", "130544.841000", "130544.844000", "130544.846000", "130544.846000", "130544.849000", "130544.851000", "130544.854000", "130544.854000", "130544.856000", "130544.859000", "130544.861000", "130544.861000", "130544.864000", "130544.866000", "130620.714000", "130620.714000", "130620.717000", "130620.719000", "130620.722000", "130620.724000", "130620.724000", "130620.727000", "130620.729000", "130620.732000", "130620.734000", "130620.737000", "130620.737000", "130620.739000", "130620.742000", "130620.744000", "130620.744000", "130620.747000"],
      "InstanceNumber": [1, 2, 3, 4, 5, 6, 7, 8, 9, 10, 11, 12, 13, 14, 15, 16, 17, 18, 19, 20, 21, 22, 23, 24, 25, 26, 27, 28, 29, 30, 31, 32, 33, 34, 35, 36, 37, 38, 39, 40, 41, 42, 43, 44, 45, 46, 47, 48, 49, 50, 51, 52, 53, 54, 55, 56, 57, 58, 59, 60, 61, 62, 63, 64, 65, 66, 67, 68, 69, 70, 71, 72, 73, 74, 75, 76, 77, 78, 79, 80, 81, 82, 83, 84, 85, 86, 87, 88, 89, 90, 91, 92, 93, 94, 95, 96, 97, 98, 99, 100, 101, 102, 103, 104, 105, 106, 107, 108, 109, 110, 111, 112, 113, 114, 115, 116, 117, 118, 119, 120, 121, 122, 123, 124, 125, 126, 127, 128, 129, 130, 131, 132, 133, 134, 135, 136, 137, 138, 139, 140, 141, 142, 143, 144, 145, 146, 147, 148, 149, 150, 151, 152, 153, 154, 155, 156, 157, 158, 159, 160, 161, 162, 163, 164, 165, 166, 167, 168, 169, 170, 171, 172, 173, 174, 175, 176, 177, 178, 179, 180, 181, 182, 183, 184, 185, 186, 187, 188, 189, 190, 191, 192, 193, 194, 195, 196, 197, 198, 199, 200, 201, 202, 203, 204, 205, 206, 207, 208, 209, 210, 211, 212, 213, 214, 215, 216, 217, 218, 219, 220, 221, 222, 223, 224, 225, 226, 227, 228, 229, 230, 231, 232, 233, 234, 235, 236, 237, 238, 239, 240, 241, 242, 243, 244, 245, 246, 247, 248, 249, 250, 251, 252, 253, 254, 255, 256, 257, 258, 259, 260, 261, 262, 263, 264, 265, 266, 267, 268, 269, 270, 271, 272, 273, 274, 275, 276, 277, 278, 279, 280, 281, 282, 283, 284, 285, 286, 287, 288, 289, 290, 291, 292, 293, 294, 295, 296, 297, 298, 299, 300],
      "LargestImagePixelValue": [1374, 1921, 1916, 1338, 1845, 1974, 1356, 1658, 1692, 1322, 1631, 1261, 1444, 1954, 1281, 1617, 1661, 1344, 1593, 2030, 1496, 1874, 1317, 1888, 1653, 1320, 1701, 1788, 1328, 1652, 1451, 1361, 1740, 1592, 1372, 1598, 2008, 1335, 1894, 1285, 1453, 2125, 1330, 1518, 1996, 1358, 1884, 2260, 1673, 1278, 1382, 2180, 1720, 1901, 1935, 1305, 1368, 1554, 1470, 1691, 1539, 1355, 2027, 1345, 1410, 1871, 1883, 1341, 1840, 1992, 1306, 1471, 1751, 1326, 1338, 1557, 2037, 1346, 1386, 1611, 1759, 1302, 1345, 1792, 1802, 1332, 1497, 1959, 1273, 1421, 2026, 2175, 1329, 1401, 1766, 1819, 1330, 1385, 1414, 1844, 1653, 1313, 1339, 1795, 2051, 1725, 1362, 1701, 2097, 1313, 1365, 2014, 1417, 1322, 1763, 1441, 1644, 2241, 1300, 1632, 1656, 1323, 1444, 1680, 1325, 1495, 1838, 1430, 1371, 1666, 2029, 1304, 1290, 1376, 1674, 1359, 1298, 1625, 1999, 1310, 1758, 2001, 2348, 1340, 1436, 1955, 1525, 1342, 1545, 1930, 1307, 1456, 2079, 1319, 1531, 1404, 1336, 1728, 1788, 1562, 2450, 1392, 2158, 1273, 1583, 1743, 1297, 1812, 1839, 1376, 1385, 1796, 1966, 1344, 1526, 1532, 1326, 1748, 2011, 1546, 1312, 1858, 1605, 1425, 1585, 1917, 2188, 1342, 1415, 2144, 1343, 1517, 2239, 1458, 1577, 1636, 1297, 1635, 1391, 1342, 1703, 1696, 2301, 1388, 1866, 1965, 1333, 1739, 1322, 1534, 2646, 1515, 1502, 1892, 1361, 1628, 2042, 1376, 1802, 1997, 1356, 1549, 1406, 1982, 1367, 1611, 1907, 1548, 1388, 2028, 1695, 1288, 1358, 1743, 2095, 1722, 1336, 1622, 2159, 1370, 1613, 1798, 2258, 1946, 1325, 1378, 1795, 1358, 1733, 2032, 1623, 1434, 1952, 1471, 1446, 1878, 1542, 1459, 1551, 1313, 1503, 1629, 1449, 2111, 1428, 1464, 1704, 1993, 1363, 1773, 2066, 1361, 1452, 1834, 1345, 1421, 1721, 1485, 1694, 2087, 1336, 1402, 1949, 1837, 1382, 2482, 1793, 1876, 1379, 1595, 2140, 1426, 1847, 1676, 1643, 2042, 1638, 1428, 2051, 1382],
      "WindowCenter": [544.0, 544.0, 540.0, 534.0, 538.0, 541.0, 535.0, 536.0, 536.0, 532.0, 535.0, 533.0, 535.0, 540.0, 535.0, 538.0, 537.0, 536.0, 540.0, 541.0, 537.0, 540.0, 535.0, 539.0, 538.0, 533.0, 538.0, 540.0, 533.0, 538.0, 536.0, 536.0, 539.0, 539.0, 537.0, 539.0, 541.0, 536.0, 540.0, 536.0, 538.0, 544.0, 536.0, 538.0, 542.0, 536.0, 545.0, 544.0, 538.0, 534.0, 538.0, 542.0, 538.0, 540.0, 541.0, 533.0, 533.0, 534.0, 538.0, 540.0, 537.0, 535.0, 542.0, 538.0, 537.0, 540.0, 540.0, 536.0, 541.0, 542.0, 536.0, 536.0, 540.0, 535.0, 538.0, 540.0, 544.0, 537.0, 537.0, 539.0, 540.0, 537.0, 538.0, 543.0, 543.0, 538.0, 541.0, 544.0, 538.0, 539.0, 544.0, 544.0, 538.0, 540.0, 541.0, 541.0, 537.0, 538.0, 539.0, 542.0, 542.0, 538.0, 538.0, 544.0, 545.0, 542.0, 540.0, 542.0, 544.0, 538.0, 539.0, 544.0, 540.0, 540.0, 542.0, 539.0, 543.0, 546.0, 538.0, 541.0, 543.0, 538.0, 539.0, 543.0, 540.0, 541.0, 545.0, 541.0, 541.0, 543.0, 544.0, 538.0, 538.0, 539.0, 542.0, 541.0, 541.0, 544.0, 547.0, 540.0, 546.0, 546.0, 546.0, 539.0, 541.0, 543.0, 540.0, 538.0, 542.0, 544.0, 539.0, 542.0, 547.0, 538.0, 543.0, 542.0, 542.0, 546.0, 545.0, 540.0, 548.0, 540.0, 545.0, 538.0, 541.0, 543.0, 539.0, 544.0, 544.0, 539.0, 539.0, 544.0, 545.0, 538.0, 541.0, 543.0, 542.0, 544.0, 545.0, 541.0, 540.0, 546.0, 544.0, 541.0, 543.0, 548.0, 551.0, 541.0, 540.0, 548.0, 542.0, 543.0, 546.0, 541.0, 543.0, 543.0, 539.0, 543.0, 543.0, 542.0, 546.0, 546.0, 551.0, 542.0, 546.0, 547.0, 541.0, 545.0, 541.0, 543.0, 551.0, 544.0, 542.0, 545.0, 540.0, 544.0, 547.0, 541.0, 546.0, 547.0, 542.0, 545.0, 545.0, 549.0, 543.0, 545.0, 547.0, 545.0, 544.0, 548.0, 544.0, 539.0, 541.0, 546.0, 549.0, 545.0, 541.0, 545.0, 549.0, 544.0, 548.0, 547.0, 551.0, 548.0, 541.0, 543.0, 548.0, 544.0, 549.0, 550.0, 547.0, 544.0, 548.0, 545.0, 544.0, 547.0, 544.0, 544.0, 547.0, 544.0, 545.0, 546.0, 547.0, 550.0, 544.0, 544.0, 546.0, 550.0, 544.0, 547.0, 548.0, 542.0, 544.0, 547.0, 543.0, 545.0, 548.0, 546.0, 549.0, 551.0, 543.0, 545.0, 550.0, 550.0, 546.0, 554.0, 548.0, 547.0, 544.0, 546.0, 551.0, 547.0, 549.0, 548.0, 548.0, 549.0, 547.0, 544.0, 549.0, 544.0],
      "WindowWidth": [1145.0, 1142.0, 1133.0, 1122.0, 1128.0, 1134.0, 1125.0, 1124.0, 1125.0, 1117.0, 1123.0, 1121.0, 1124.0, 1132.0, 1125.0, 1128.0, 1128.0, 1126.0, 1134.0, 1133.0, 1127.0, 1133.0, 1124.0, 1131.0, 1128.0, 1121.0, 1129.0, 1133.0, 1121.0, 1129.0, 1126.0, 1127.0, 1131.0, 1131.0, 1128.0, 1131.0, 1135.0, 1126.0, 1133.0, 1127.0, 1130.0, 1140.0, 1125.0, 1130.0, 1136.0, 1126.0, 1142.0, 1140.0, 1128.0, 1124.0, 1130.0, 1136.0, 1129.0, 1133.0, 1134.0, 1121.0, 1120.0, 1121.0, 1129.0, 1133.0, 1128.0, 1125.0, 1136.0, 1130.0, 1129.0, 1131.0, 1133.0, 1127.0, 1135.0, 1136.0, 1126.0, 1127.0, 1133.0, 1125.0, 1130.0, 1133.0, 1140.0, 1128.0, 1129.0, 1131.0, 1133.0, 1129.0, 1131.0, 1139.0, 1138.0, 1130.0, 1136.0, 1140.0, 1131.0, 1133.0, 1141.0, 1140.0, 1130.0, 1135.0, 1135.0, 1134.0, 1129.0, 1130.0, 1131.0, 1137.0, 1137.0, 1130.0, 1131.0, 1140.0, 1143.0, 1138.0, 1135.0, 1138.0, 1140.0, 1131.0, 1133.0, 1140.0, 1134.0, 1134.0, 1136.0, 1131.0, 1139.0, 1145.0, 1130.0, 1135.0, 1139.0, 1131.0, 1133.0, 1139.0, 1135.0, 1135.0, 1143.0, 1137.0, 1136.0, 1139.0, 1140.0, 1130.0, 1130.0, 1133.0, 1138.0, 1137.0, 1138.0, 1141.0, 1148.0, 1136.0, 1145.0, 1146.0, 1145.0, 1134.0, 1136.0, 1139.0, 1133.0, 1131.0, 1139.0, 1141.0, 1134.0, 1139.0, 1146.0, 1131.0, 1140.0, 1138.0, 1139.0, 1146.0, 1144.0, 1134.0, 1149.0, 1135.0, 1143.0, 1131.0, 1136.0, 1140.0, 1132.0, 1141.0, 1141.0, 1133.0, 1133.0, 1142.0, 1142.0, 1131.0, 1135.0, 1140.0, 1139.0, 1141.0, 1144.0, 1137.0, 1135.0, 1144.0, 1141.0, 1137.0, 1140.0, 1149.0, 1154.0, 1136.0, 1134.0, 1148.0, 1138.0, 1140.0, 1145.0, 1136.0, 1141.0, 1140.0, 1134.0, 1140.0, 1141.0, 1138.0, 1146.0, 1146.0, 1155.0, 1138.0, 1144.0, 1147.0, 1136.0, 1143.0, 1138.0, 1141.0, 1155.0, 1142.0, 1139.0, 1142.0, 1135.0, 1143.0, 1148.0, 1137.0, 1146.0, 1146.0, 1138.0, 1145.0, 1144.0, 1151.0, 1141.0, 1144.0, 1148.0, 1145.0, 1143.0, 1149.0, 1141.0, 1133.0, 1136.0, 1145.0, 1150.0, 1143.0, 1137.0, 1144.0, 1151.0, 1143.0, 1150.0, 1147.0, 1155.0, 1149.0, 1137.0, 1141.0, 1149.0, 1143.0, 1151.0, 1153.0, 1148.0, 1142.0, 1149.0, 1143.0, 1142.0, 1147.0, 1143.0, 1142.0, 1147.0, 1144.0, 1144.0, 1145.0, 1149.0, 1152.0, 1144.0, 1142.0, 1146.0, 1153.0, 1142.0, 1147.0, 1149.0, 1140.0, 1142.0, 1147.0, 1141.0, 1145.0, 1150.0, 1146.0, 1151.0, 1154.0, 1142.0, 1145.0, 1153.0, 1153.0, 1147.0, 1160.0, 1149.0, 1148.0, 1143.0, 1146.0, 1156.0, 1149.0, 1151.0, 1150.0, 1150.0, 1152.0, 1149.0, 1143.0, 1151.0, 1143.0]
    },
    "slices": {}
  }
}