{
  "AcquisitionMatrixPE": 74,
  "AcquisitionNumber": 1,
  "AcquisitionTime": "12:41:15.540000",
  "BandwidthPerPixelPhaseEncode": 27.579,
  "BaseResolution": 74,
  "BodyPartExamined": "HEAD",
  "CoilString": "t:HEA;HEP",
  "ConversionSoftware": "dcm2niix",
  "ConversionSoftwareVersion": "v1.0.20190410  GCC6.3.0",
  "DerivedVendorReportedEchoSpacing": 0.000489993,
  "DeviceSerialNumber": "35256",
  "DwellTime": 2.4e-06,
  "EchoTime": 0.03,
  "EffectiveEchoSpacing": 0.000489993,
  "FlipAngle": 70,
  "ImageOrientationPatientDICOM": [1, 0, 0, 0, 1, 0],
  "ImageType": [
    "ORIGINAL",
    "PRIMARY",
    "M",
    "ND",
    "NORM",
    "MOSAIC"
],
  "ImagingFrequency": 123.223,
  "InPlanePhaseEncodingDirectionDICOM": "COL",
  "InstitutionAddress": "East_Lee_St._2907_Greensboro_NC_US_27401",
  "InstitutionName": "JSNN",
  "InstitutionalDepartmentName": "Department",
  "MRAcquisitionType": "2D",
  "MagneticFieldStrength": 3,
  "Manufacturer": "Siemens",
  "ManufacturersModelName": "TrioTim",
  "Modality": "MR",
  "PartialFourier": 1,
  "PatientPosition": "HFS",
  "PercentPhaseFOV": 100,
  "PhaseEncodingDirection": "j-",
  "PhaseEncodingSteps": 74,
  "PhaseResolution": 1,
  "PixelBandwidth": 2815,
  "ProcedureStepDescription": "head_Cassidy",
  "ProtocolName": "RestingState",
  "PulseSequenceDetails": "%SiemensSeq%_ep2d_bold",
  "ReceiveCoilName": "HeadMatrix",
  "ReconMatrixPE": 74,
  "RepetitionTime": 2,
  "SAR": 0.0991604,
  "ScanOptions": "FS",
  "ScanningSequence": "EP",
  "SequenceName": "_epfid2d1_74",
  "SequenceVariant": "SK",
  "SeriesDescription": "RestingState",
  "SeriesNumber": 3,
  "ShimSetting": [1417, 10713, -8791, 951, 116, 92, 400, -61],
  "SliceThickness": 4,
  "SliceTiming": [1.945, 1.8825, 1.82, 1.755, 1.6925, 1.63, 1.5675, 1.505, 1.4425, 1.38, 1.3175, 1.255, 1.1925, 1.13, 1.065, 1.0025, 0.94, 0.8775, 0.815, 0.7525, 0.69, 0.6275, 0.565, 0.5025, 0.44, 0.375, 0.3125, 0.25, 0.1875, 0.125, 0.0625, 0],
  "SoftwareVersions": "syngo_MR_B19",
  "SpacingBetweenSlices": 4,
  "StationName": "JSNNMRI",
  "TaskName": "rest",
  "TotalReadoutTime": 0.0357695,
  "TxRefAmp": 256.1,
  "dcmmeta_affine": [
    [-2.972972869873047, 0.0, 0.0, 105.18071746826172],
    [0.0, 2.972972869873047, 0.0, -92.6414794921875],
    [0.0, 0.0, 3.999999761581421, -51.46023941040039],
    [0.0, 0.0, 0.0, 1.0]
],
  "dcmmeta_reorient_transform": [
    [0.0, -1.0, 0.0, 73.0],
    [1.0, 0.0, 0.0, 0.0],
    [0.0, 0.0, 1.0, 0.0],
    [0.0, 0.0, 0.0, 1.0]
],
  "dcmmeta_shape": [74, 74, 32, 300],
  "dcmmeta_slice_dim": 2,
  "dcmmeta_version": 0.6,
  "global": {
    "const": {
      "AcquisitionMatrix": [74, 0, 0, 74],
      "AngioFlag": "N",
      "BitsAllocated": 16,
      "BitsStored": 12,
      "BodyPartExamined": "HEAD",
      "Columns": 444,
      "EchoNumbers": 1,
      "EchoTime": 30.0,
      "EchoTrainLength": 1,
      "FlipAngle": 70.0,
      "HighBit": 11,
      "ImageOrientationPatient": [1.0, 0.0, 0.0, 0.0, 1.0, 0.0],
      "ImagePositionPatient": [-655.18069982529, -674.38551902771, -51.4602394104],
      "ImageType": [
        "ORIGINAL",
        "PRIMARY",
        "M",
        "ND",
        "NORM",
        "MOSAIC"
],
      "ImagedNucleus": "1H",
      "ImagingFrequency": 123.22271,
      "InPlanePhaseEncodingDirection": "COL",
      "MRAcquisitionType": "2D",
      "MagneticFieldStrength": 3.0,
      "Manufacturer": "SIEMENS",
      "ManufacturerModelName": "TrioTim",
      "Modality": "MR",
      "NumberOfAverages": 1.0,
      "NumberOfPhaseEncodingSteps": 74,
      "PercentPhaseFieldOfView": 100.0,
      "PercentSampling": 100.0,
      "PerformedProcedureStepStartTime": "120141.454000",
      "PhotometricInterpretation": "MONOCHROME2",
      "PixelBandwidth": 2815.0,
      "PixelRepresentation": 0,
      "PixelSpacing": [2.972972869873, 2.972972869873],
      "ProtocolName": "RestingState",
      "RepetitionTime": 2000.0,
      "Rows": 444,
      "SAR": 0.09916035733393,
      "SamplesPerPixel": 1,
      "ScanOptions": "FS",
      "ScanningSequence": "EP",
      "SequenceName": "*epfid2d1_74",
      "SequenceVariant": "SK",
      "SeriesDescription": "RestingState",
      "SeriesNumber": 3,
      "SeriesTime": "124155.687000",
      "SliceLocation": -51.4602394104,
      "SliceThickness": 4.0,
      "SmallestImagePixelValue": 0,
      "SoftwareVersions": "syngo MR B19",
      "SpacingBetweenSlices": 3.9999998769452,
      "SpecificCharacterSet": "ISO_IR 100",
      "StudyID": "1",
      "StudyTime": "120141.354000",
      "TransmitCoilName": "Body",
      "VariableFlipAngleFlag": "N",
      "WindowCenterWidthExplanation": "Algo1",
      "dBdt": 0.0},
    "slices": {}
  },
  "time": {
    "samples": {
      "AcquisitionNumber": [1, 2, 3, 4, 5, 6, 7, 8, 9, 10, 11, 12, 13, 14, 15, 16, 17, 18, 19, 20, 21, 22, 23, 24, 25, 26, 27, 28, 29, 30, 31, 32, 33, 34, 35, 36, 37, 38, 39, 40, 41, 42, 43, 44, 45, 46, 47, 48, 49, 50, 51, 52, 53, 54, 55, 56, 57, 58, 59, 60, 61, 62, 63, 64, 65, 66, 67, 68, 69, 70, 71, 72, 73, 74, 75, 76, 77, 78, 79, 80, 81, 82, 83, 84, 85, 86, 87, 88, 89, 90, 91, 92, 93, 94, 95, 96, 97, 98, 99, 100, 101, 102, 103, 104, 105, 106, 107, 108, 109, 110, 111, 112, 113, 114, 115, 116, 117, 118, 119, 120, 121, 122, 123, 124, 125, 126, 127, 128, 129, 130, 131, 132, 133, 134, 135, 136, 137, 138, 139, 140, 141, 142, 143, 144, 145, 146, 147, 148, 149, 150, 151, 152, 153, 154, 155, 156, 157, 158, 159, 160, 161, 162, 163, 164, 165, 166, 167, 168, 169, 170, 171, 172, 173, 174, 175, 176, 177, 178, 179, 180, 181, 182, 183, 184, 185, 186, 187, 188, 189, 190, 191, 192, 193, 194, 195, 196, 197, 198, 199, 200, 201, 202, 203, 204, 205, 206, 207, 208, 209, 210, 211, 212, 213, 214, 215, 216, 217, 218, 219, 220, 221, 222, 223, 224, 225, 226, 227, 228, 229, 230, 231, 232, 233, 234, 235, 236, 237, 238, 239, 240, 241, 242, 243, 244, 245, 246, 247, 248, 249, 250, 251, 252, 253, 254, 255, 256, 257, 258, 259, 260, 261, 262, 263, 264, 265, 266, 267, 268, 269, 270, 271, 272, 273, 274, 275, 276, 277, 278, 279, 280, 281, 282, 283, 284, 285, 286, 287, 288, 289, 290, 291, 292, 293, 294, 295, 296, 297, 298, 299, 300],
      "AcquisitionTime": ["124115.540000", "124117.547500", "124119.555000", "124121.562500", "124123.572500", "124125.580000", "124127.587500", "124129.595000", "124131.602500", "124133.612500", "124135.620000", "124137.627500", "124139.635000", "124141.645000", "124143.652500", "124145.660000", "124147.667500", "124149.675000", "124151.685000", "124153.692500", "124155.700000", "124157.707500", "124159.715000", "124201.725000", "124203.732500", "124205.740000", "124207.747500", "124209.757500", "124211.765000", "124213.772500", "124215.780000", "124217.787500", "124219.797500", "124221.805000", "124223.812500", "124225.820000", "124227.827500", "124229.837500", "124231.845000", "124233.852500", "124235.860000", "124237.867500", "124239.877500", "124241.885000", "124243.892500", "124245.900000", "124247.910000", "124249.917500", "124251.925000", "124253.932500", "124255.940000", "124257.950000", "124259.957500", "124301.965000", "124303.972500", "124305.980000", "124307.990000", "124309.997500", "124312.005000", "124314.012500", "124316.022500", "124318.030000", "124320.037500", "124322.045000", "124324.052500", "124326.062500", "124328.070000", "124330.077500", "124332.085000", "124334.092500", "124336.102500", "124338.110000", "124340.117500", "124342.125000", "124344.135000", "124346.142500", "124348.150000", "124350.157500", "124352.165000", "124354.175000", "124356.182500", "124358.190000", "124400.197500", "124402.205000", "124404.215000", "124406.222500", "124408.230000", "124410.237500", "124412.247500", "124414.255000", "124416.262500", "124418.270000", "124420.277500", "124422.287500", "124424.295000", "124426.302500", "124428.310000", "124430.317500", "124432.327500", "124434.335000", "124436.342500", "124438.350000", "124440.357500", "124442.367500", "124444.375000", "124446.382500", "124448.390000", "124450.400000", "124452.407500", "124454.415000", "124456.422500", "124458.430000", "124500.440000", "124502.447500", "124504.455000", "124506.462500", "124508.470000", "124510.480000", "124512.487500", "124514.495000", "124516.502500", "124518.512500", "124520.520000", "124522.527500", "124524.535000", "124526.542500", "124528.552500", "124530.560000", "124532.567500", "124534.575000", "124536.582500", "124538.592500", "124540.600000", "124542.607500", "124544.615000", "124546.625000", "124548.632500", "124550.640000", "124552.647500", "124554.655000", "124556.665000", "124558.672500", "124600.680000", "124602.687500", "124604.695000", "124606.705000", "124608.712500", "124610.720000", "124612.727500", "124614.735000", "124616.745000", "124618.752500", "124620.760000", "124622.767500", "124624.777500", "124626.785000", "124628.792500", "124630.800000", "124632.807500", "124634.817500", "124636.825000", "124638.832500", "124640.840000", "124642.847500", "124644.857500", "124646.865000", "124648.872500", "124650.880000", "124652.890000", "124654.897500", "124656.905000", "124658.912500", "124700.920000", "124702.930000", "124704.937500", "124706.945000", "124708.952500", "124710.960000", "124712.970000", "124714.977500", "124716.985000", "124718.992500", "124721.002500", "124723.010000", "124725.017500", "124727.025000", "124729.032500", "124731.042500", "124733.050000", "124735.057500", "124737.065000", "124739.072500", "124741.082500", "124743.090000", "124745.097500", "124747.105000", "124749.112500", "124751.122500", "124753.130000", "124755.137500", "124757.145000", "124759.155000", "124801.162500", "124803.170000", "124805.177500", "124807.185000", "124809.195000", "124811.202500", "124813.210000", "124815.217500", "124817.225000", "124819.235000", "124821.242500", "124823.250000", "124825.257500", "124827.267500", "124829.275000", "124831.282500", "124833.290000", "124835.297500", "124837.307500", "124839.315000", "124841.322500", "124843.330000", "124845.337500", "124847.347500", "124849.355000", "124851.362500", "124853.370000", "124855.380000", "124857.387500", "124859.395000", "124901.402500", "124903.410000", "124905.420000", "124907.427500", "124909.435000", "124911.442500", "124913.450000", "124915.460000", "124917.467500", "124919.475000", "124921.482500", "124923.490000", "124925.500000", "124927.507500", "124929.515000", "124931.522500", "124933.532500", "124935.540000", "124937.547500", "124939.555000", "124941.562500", "124943.572500", "124945.580000", "124947.587500", "124949.595000", "124951.602500", "124953.612500", "124955.620000", "124957.627500", "124959.635000", "125001.645000", "125003.652500", "125005.660000", "125007.667500", "125009.675000", "125011.685000", "125013.692500", "125015.700000", "125017.707500", "125019.715000", "125021.725000", "125023.732500", "125025.740000", "125027.747500", "125029.757500", "125031.765000", "125033.772500", "125035.780000", "125037.787500", "125039.797500", "125041.805000", "125043.812500", "125045.820000", "125047.827500", "125049.837500", "125051.845000", "125053.852500", "125055.860000", "125057.867500", "125059.877500", "125101.885000", "125103.892500", "125105.900000", "125107.910000", "125109.917500", "125111.925000", "125113.932500", "125115.940000"],
      "ContentTime": ["124155.689000", "124155.692000", "124155.694000", "124155.697000", "124155.699000", "124155.699000", "124155.702000", "124155.704000", "124155.707000", "124155.707000", "124155.709000", "124155.712000", "124155.714000", "124155.717000", "124155.717000", "124155.719000", "124155.722000", "124155.724000", "124155.724000", "124155.727000", "124235.682000", "124235.685000", "124235.687000", "124235.690000", "124235.692000", "124235.692000", "124235.695000", "124235.697000", "124235.700000", "124235.700000", "124235.702000", "124235.705000", "124235.707000", "124235.707000", "124235.710000", "124235.712000", "124235.715000", "124235.715000", "124235.717000", "124235.720000", "124315.683000", "124315.686000", "124315.688000", "124315.691000", "124315.693000", "124315.693000", "124315.696000", "124315.698000", "124315.701000", "124315.701000", "124315.703000", "124315.706000", "124315.708000", "124315.708000", "124315.711000", "124315.713000", "124315.716000", "124315.718000", "124315.718000", "124315.721000", "124355.684000", "124355.686000", "124355.689000", "124355.691000", "124355.694000", "124355.694000", "124355.696000", "124355.699000", "124355.701000", "124355.701000", "124355.704000", "124355.706000", "124355.709000", "124355.709000", "124355.711000", "124355.714000", "124355.716000", "124355.716000", "124355.719000", "124355.721000", "124435.684000", "124435.687000", "124435.689000", "124435.692000", "124435.694000", "124435.694000", "124435.697000", "124435.699000", "124435.702000", "124435.702000", "124435.704000", "124435.707000", "124435.709000", "124435.709000", "124435.712000", "124435.714000", "124435.717000", "124435.717000", "124435.719000", "124435.722000", "124515.682000", "124515.685000", "124515.687000", "124515.690000", "124515.692000", "124515.692000", "124515.695000", "124515.697000", "124515.700000", "124515.700000", "124515.702000", "124515.705000", "124515.707000", "124515.707000", "124515.710000", "124515.712000", "124515.715000", "124515.717000", "124515.717000", "124515.720000", "124555.683000", "124555.686000", "124555.688000", "124555.691000", "124555.693000", "124555.693000", "124555.696000", "124555.698000", "124555.701000", "124555.701000", "124555.703000", "124555.706000", "124555.708000", "124555.711000", "124555.711000", "124555.713000", "124555.716000", "124555.718000", "124555.718000", "124555.721000", "124635.684000", "124635.686000", "124635.689000", "124635.691000", "124635.694000", "124635.694000", "124635.696000", "124635.699000", "124635.701000", "124635.701000", "124635.704000", "124635.706000", "124635.709000", "124635.709000", "124635.711000", "124635.714000", "124635.716000", "124635.716000", "124635.719000", "124635.721000", "124715.684000", "124715.687000", "124715.689000", "124715.692000", "124715.694000", "124715.694000", "124715.697000", "124715.699000", "124715.702000", "124715.702000", "124715.704000", "124715.707000", "124715.709000", "124715.709000", "124715.712000", "124715.714000", "124715.717000", "124715.719000", "124715.719000", "124715.722000", "124755.682000", "124755.685000", "124755.687000", "124755.690000", "124755.692000", "124755.692000", "124755.695000", "124755.697000", "124755.700000", "124755.702000", "124755.702000", "124755.705000", "124755.707000", "124755.710000", "124755.710000", "124755.712000", "124755.715000", "124755.717000", "124755.717000", "124755.720000", "124835.683000", "124835.685000", "124835.688000", "124835.690000", "124835.693000", "124835.693000", "124835.695000", "124835.698000", "124835.700000", "124835.700000", "124835.703000", "124835.705000", "124835.708000", "124835.708000", "124835.710000", "124835.713000", "124835.715000", "124835.715000", "124835.718000", "124835.720000", "124915.684000", "124915.686000", "124915.689000", "124915.691000", "124915.694000", "124915.694000", "124915.696000", "124915.699000", "124915.701000", "124915.701000", "124915.704000", "124915.706000", "124915.709000", "124915.711000", "124915.711000", "124915.714000", "124915.716000", "124915.719000", "124915.719000", "124915.721000", "124955.684000", "124955.687000", "124955.689000", "124955.692000", "124955.694000", "124955.694000", "124955.697000", "124955.699000", "124955.702000", "124955.702000", "124955.704000", "124955.707000", "124955.709000", "124955.709000", "124955.712000", "124955.714000", "124955.717000", "124955.717000", "124955.719000", "124955.722000", "125035.682000", "125035.685000", "125035.687000", "125035.690000", "125035.692000", "125035.692000", "125035.695000", "125035.697000", "125035.700000", "125035.702000", "125035.702000", "125035.705000", "125035.707000", "125035.710000", "125035.712000", "125035.712000", "125035.715000", "125035.717000", "125035.720000", "125035.720000", "125114.955000", "125114.958000", "125114.960000", "125114.963000", "125114.963000", "125114.965000", "125114.968000", "125114.970000", "125114.970000", "125114.973000", "125114.975000", "125114.978000", "125114.980000", "125114.983000", "125114.983000", "125114.985000", "125114.988000", "125114.990000", "125114.993000", "125114.995000"],
      "InstanceCreationTime": ["124155.689000", "124155.692000", "124155.694000", "124155.697000", "124155.699000", "124155.699000", "124155.702000", "124155.704000", "124155.707000", "124155.707000", "124155.709000", "124155.712000", "124155.714000", "124155.717000", "124155.717000", "124155.719000", "124155.722000", "124155.724000", "124155.724000", "124155.727000", "124235.682000", "124235.685000", "124235.687000", "124235.690000", "124235.692000", "124235.692000", "124235.695000", "124235.697000", "124235.700000", "124235.700000", "124235.702000", "124235.705000", "124235.707000", "124235.707000", "124235.710000", "124235.712000", "124235.715000", "124235.715000", "124235.717000", "124235.720000", "124315.683000", "124315.686000", "124315.688000", "124315.691000", "124315.693000", "124315.693000", "124315.696000", "124315.698000", "124315.701000", "124315.701000", "124315.703000", "124315.706000", "124315.708000", "124315.708000", "124315.711000", "124315.713000", "124315.716000", "124315.718000", "124315.718000", "124315.721000", "124355.684000", "124355.686000", "124355.689000", "124355.691000", "124355.694000", "124355.694000", "124355.696000", "124355.699000", "124355.701000", "124355.701000", "124355.704000", "124355.706000", "124355.709000", "124355.709000", "124355.711000", "124355.714000", "124355.716000", "124355.716000", "124355.719000", "124355.721000", "124435.684000", "124435.687000", "124435.689000", "124435.692000", "124435.694000", "124435.694000", "124435.697000", "124435.699000", "124435.702000", "124435.702000", "124435.704000", "124435.707000", "124435.709000", "124435.709000", "124435.712000", "124435.714000", "124435.717000", "124435.717000", "124435.719000", "124435.722000", "124515.682000", "124515.685000", "124515.687000", "124515.690000", "124515.692000", "124515.692000", "124515.695000", "124515.697000", "124515.700000", "124515.700000", "124515.702000", "124515.705000", "124515.707000", "124515.707000", "124515.710000", "124515.712000", "124515.715000", "124515.717000", "124515.717000", "124515.720000", "124555.683000", "124555.686000", "124555.688000", "124555.691000", "124555.693000", "124555.693000", "124555.696000", "124555.698000", "124555.701000", "124555.701000", "124555.703000", "124555.706000", "124555.708000", "124555.711000", "124555.711000", "124555.713000", "124555.716000", "124555.718000", "124555.718000", "124555.721000", "124635.684000", "124635.686000", "124635.689000", "124635.691000", "124635.694000", "124635.694000", "124635.696000", "124635.699000", "124635.701000", "124635.701000", "124635.704000", "124635.706000", "124635.709000", "124635.709000", "124635.711000", "124635.714000", "124635.716000", "124635.716000", "124635.719000", "124635.721000", "124715.684000", "124715.687000", "124715.689000", "124715.692000", "124715.694000", "124715.694000", "124715.697000", "124715.699000", "124715.702000", "124715.702000", "124715.704000", "124715.707000", "124715.709000", "124715.709000", "124715.712000", "124715.714000", "124715.717000", "124715.719000", "124715.719000", "124715.722000", "124755.682000", "124755.685000", "124755.687000", "124755.690000", "124755.692000", "124755.692000", "124755.695000", "124755.697000", "124755.700000", "124755.702000", "124755.702000", "124755.705000", "124755.707000", "124755.710000", "124755.710000", "124755.712000", "124755.715000", "124755.717000", "124755.717000", "124755.720000", "124835.683000", "124835.685000", "124835.688000", "124835.690000", "124835.693000", "124835.693000", "124835.695000", "124835.698000", "124835.700000", "124835.700000", "124835.703000", "124835.705000", "124835.708000", "124835.708000", "124835.710000", "124835.713000", "124835.715000", "124835.715000", "124835.718000", "124835.720000", "124915.684000", "124915.686000", "124915.689000", "124915.691000", "124915.694000", "124915.694000", "124915.696000", "124915.699000", "124915.701000", "124915.701000", "124915.704000", "124915.706000", "124915.709000", "124915.711000", "124915.711000", "124915.714000", "124915.716000", "124915.719000", "124915.719000", "124915.721000", "124955.684000", "124955.687000", "124955.689000", "124955.692000", "124955.694000", "124955.694000", "124955.697000", "124955.699000", "124955.702000", "124955.702000", "124955.704000", "124955.707000", "124955.709000", "124955.709000", "124955.712000", "124955.714000", "124955.717000", "124955.717000", "124955.719000", "124955.722000", "125035.682000", "125035.685000", "125035.687000", "125035.690000", "125035.692000", "125035.692000", "125035.695000", "125035.697000", "125035.700000", "125035.702000", "125035.702000", "125035.705000", "125035.707000", "125035.710000", "125035.712000", "125035.712000", "125035.715000", "125035.717000", "125035.720000", "125035.720000", "125114.955000", "125114.958000", "125114.960000", "125114.963000", "125114.963000", "125114.965000", "125114.968000", "125114.970000", "125114.970000", "125114.973000", "125114.975000", "125114.978000", "125114.980000", "125114.983000", "125114.983000", "125114.985000", "125114.988000", "125114.990000", "125114.993000", "125114.995000"],
      "InstanceNumber": [1, 2, 3, 4, 5, 6, 7, 8, 9, 10, 11, 12, 13, 14, 15, 16, 17, 18, 19, 20, 21, 22, 23, 24, 25, 26, 27, 28, 29, 30, 31, 32, 33, 34, 35, 36, 37, 38, 39, 40, 41, 42, 43, 44, 45, 46, 47, 48, 49, 50, 51, 52, 53, 54, 55, 56, 57, 58, 59, 60, 61, 62, 63, 64, 65, 66, 67, 68, 69, 70, 71, 72, 73, 74, 75, 76, 77, 78, 79, 80, 81, 82, 83, 84, 85, 86, 87, 88, 89, 90, 91, 92, 93, 94, 95, 96, 97, 98, 99, 100, 101, 102, 103, 104, 105, 106, 107, 108, 109, 110, 111, 112, 113, 114, 115, 116, 117, 118, 119, 120, 121, 122, 123, 124, 125, 126, 127, 128, 129, 130, 131, 132, 133, 134, 135, 136, 137, 138, 139, 140, 141, 142, 143, 144, 145, 146, 147, 148, 149, 150, 151, 152, 153, 154, 155, 156, 157, 158, 159, 160, 161, 162, 163, 164, 165, 166, 167, 168, 169, 170, 171, 172, 173, 174, 175, 176, 177, 178, 179, 180, 181, 182, 183, 184, 185, 186, 187, 188, 189, 190, 191, 192, 193, 194, 195, 196, 197, 198, 199, 200, 201, 202, 203, 204, 205, 206, 207, 208, 209, 210, 211, 212, 213, 214, 215, 216, 217, 218, 219, 220, 221, 222, 223, 224, 225, 226, 227, 228, 229, 230, 231, 232, 233, 234, 235, 236, 237, 238, 239, 240, 241, 242, 243, 244, 245, 246, 247, 248, 249, 250, 251, 252, 253, 254, 255, 256, 257, 258, 259, 260, 261, 262, 263, 264, 265, 266, 267, 268, 269, 270, 271, 272, 273, 274, 275, 276, 277, 278, 279, 280, 281, 282, 283, 284, 285, 286, 287, 288, 289, 290, 291, 292, 293, 294, 295, 296, 297, 298, 299, 300],
      "LargestImagePixelValue": [2079, 1970, 1883, 1967, 1934, 1977, 1986, 1832, 1974, 1897, 2021, 1941, 1938, 1955, 1899, 1985, 1950, 1945, 1931, 1911, 1920, 1856, 2010, 1931, 2021, 1937, 2026, 1897, 1967, 1953, 1889, 1964, 1927, 2012, 1938, 2009, 1901, 1907, 1925, 1880, 1947, 1934, 1995, 1914, 1894, 1977, 1939, 1924, 1991, 1939, 1864, 1979, 1903, 1967, 1923, 1999, 1899, 1914, 1938, 1935, 1929, 1873, 1937, 1879, 1948, 1836, 1943, 1838, 1979, 1956, 1920, 1960, 1940, 1971, 1928, 1977, 1894, 1976, 1899, 2020, 1942, 1927, 1959, 1928, 1941, 1952, 1881, 1972, 1939, 2012, 1925, 1933, 1951, 1823, 1997, 1972, 1965, 2000, 1851, 1991, 1957, 1959, 1969, 1963, 1995, 1958, 1983, 1878, 1983, 1977, 1862, 1975, 1987, 1989, 1919, 1986, 1950, 1950, 1980, 1924, 2025, 1976, 1922, 1955, 1910, 2004, 1936, 1861, 1978, 1939, 1885, 1936, 1920, 1966, 1932, 1859, 1967, 1975, 1956, 1918, 1964, 1951, 1959, 1977, 1959, 1935, 1896, 1952, 1969, 1856, 1946, 1981, 1898, 1970, 1971, 1946, 1987, 1911, 1870, 1966, 1933, 1896, 1955, 1960, 1923, 1957, 1958, 2190, 1971, 1899, 1969, 1926, 1910, 2010, 1934, 1961, 1982, 2039, 2055, 1982, 2008, 1908, 1938, 1973, 1897, 1960, 1971, 1968, 1878, 1958, 1973, 1993, 2014, 1984, 1937, 2004, 1946, 1912, 2013, 1972, 2007, 1994, 1977, 1967, 1954, 2004, 1967, 1938, 2035, 1928, 2168, 1946, 1932, 1965, 1953, 1952, 2003, 1953, 1940, 1947, 1995, 1948, 1990, 1972, 1914, 2001, 1930, 1956, 1941, 1942, 1976, 1958, 1956, 1958, 1944, 1975, 1992, 1984, 1910, 2274, 1940, 1911, 1906, 1982, 1919, 2030, 1950, 1963, 1994, 1943, 1919, 1989, 1932, 1950, 1934, 1924, 1907, 1953, 1973, 1914, 2150, 1925, 1914, 1881, 1996, 1906, 1932, 1919, 1965, 2000, 1982, 2002, 1913, 2229, 1973, 1950, 1958, 2032, 1950, 2038, 1969, 1962, 2030, 1926, 2075, 1962, 1932, 2031, 1994, 1972, 2004, 1946, 1989, 1998, 1928, 2078, 1972, 1934, 1969, 1966],
      "WindowCenter": [659.0, 655.0, 654.0, 654.0, 654.0, 654.0, 654.0, 654.0, 654.0, 655.0, 654.0, 655.0, 655.0, 655.0, 655.0, 655.0, 655.0, 655.0, 655.0, 656.0, 656.0, 655.0, 655.0, 655.0, 655.0, 656.0, 656.0, 656.0, 655.0, 655.0, 655.0, 655.0, 656.0, 656.0, 656.0, 656.0, 656.0, 655.0, 656.0, 656.0, 656.0, 657.0, 656.0, 656.0, 656.0, 657.0, 656.0, 657.0, 657.0, 657.0, 658.0, 658.0, 657.0, 657.0, 657.0, 658.0, 657.0, 657.0, 657.0, 657.0, 657.0, 656.0, 657.0, 657.0, 657.0, 657.0, 657.0, 656.0, 658.0, 657.0, 657.0, 657.0, 657.0, 658.0, 658.0, 657.0, 657.0, 658.0, 659.0, 659.0, 658.0, 658.0, 658.0, 658.0, 659.0, 659.0, 660.0, 659.0, 660.0, 660.0, 659.0, 658.0, 659.0, 658.0, 659.0, 659.0, 659.0, 660.0, 660.0, 660.0, 660.0, 659.0, 660.0, 659.0, 660.0, 660.0, 659.0, 659.0, 660.0, 660.0, 660.0, 659.0, 659.0, 660.0, 660.0, 660.0, 661.0, 660.0, 660.0, 660.0, 661.0, 661.0, 660.0, 660.0, 661.0, 661.0, 661.0, 660.0, 661.0, 661.0, 661.0, 660.0, 660.0, 660.0, 660.0, 660.0, 660.0, 660.0, 660.0, 660.0, 661.0, 661.0, 661.0, 661.0, 662.0, 662.0, 661.0, 661.0, 662.0, 662.0, 662.0, 662.0, 662.0, 663.0, 662.0, 663.0, 663.0, 662.0, 661.0, 662.0, 662.0, 662.0, 661.0, 661.0, 662.0, 662.0, 661.0, 662.0, 661.0, 661.0, 661.0, 660.0, 661.0, 662.0, 662.0, 662.0, 662.0, 661.0, 660.0, 660.0, 661.0, 661.0, 660.0, 659.0, 659.0, 659.0, 660.0, 660.0, 660.0, 661.0, 661.0, 662.0, 662.0, 663.0, 663.0, 662.0, 662.0, 662.0, 662.0, 663.0, 662.0, 664.0, 664.0, 663.0, 664.0, 664.0, 664.0, 664.0, 665.0, 664.0, 664.0, 663.0, 664.0, 664.0, 664.0, 664.0, 664.0, 664.0, 663.0, 662.0, 663.0, 663.0, 664.0, 664.0, 663.0, 664.0, 663.0, 663.0, 663.0, 663.0, 664.0, 664.0, 664.0, 664.0, 664.0, 666.0, 665.0, 665.0, 665.0, 665.0, 663.0, 663.0, 663.0, 664.0, 664.0, 665.0, 664.0, 664.0, 665.0, 665.0, 665.0, 664.0, 664.0, 664.0, 664.0, 664.0, 663.0, 665.0, 665.0, 665.0, 666.0, 664.0, 663.0, 662.0, 664.0, 664.0, 663.0, 664.0, 665.0, 665.0, 666.0, 666.0, 665.0, 665.0, 664.0, 663.0, 664.0, 665.0, 666.0, 666.0, 665.0, 665.0, 665.0, 665.0, 665.0, 665.0, 665.0, 666.0, 666.0, 666.0, 666.0, 665.0, 666.0, 665.0, 665.0, 666.0, 666.0, 666.0, 665.0, 665.0],
      "WindowWidth": [1418.0, 1406.0, 1402.0, 1403.0, 1404.0, 1403.0, 1402.0, 1402.0, 1404.0, 1405.0, 1403.0, 1404.0, 1405.0, 1405.0, 1405.0, 1404.0, 1405.0, 1405.0, 1406.0, 1409.0, 1409.0, 1406.0, 1405.0, 1406.0, 1406.0, 1408.0, 1407.0, 1407.0, 1406.0, 1406.0, 1406.0, 1406.0, 1408.0, 1409.0, 1409.0, 1408.0, 1409.0, 1407.0, 1408.0, 1407.0, 1408.0, 1409.0, 1409.0, 1409.0, 1408.0, 1410.0, 1409.0, 1410.0, 1411.0, 1410.0, 1412.0, 1412.0, 1411.0, 1410.0, 1411.0, 1412.0, 1409.0, 1410.0, 1410.0, 1412.0, 1411.0, 1409.0, 1411.0, 1411.0, 1411.0, 1411.0, 1411.0, 1409.0, 1412.0, 1412.0, 1411.0, 1412.0, 1410.0, 1414.0, 1413.0, 1411.0, 1411.0, 1414.0, 1416.0, 1416.0, 1414.0, 1414.0, 1413.0, 1414.0, 1416.0, 1416.0, 1417.0, 1417.0, 1417.0, 1418.0, 1414.0, 1414.0, 1415.0, 1414.0, 1416.0, 1415.0, 1416.0, 1418.0, 1418.0, 1419.0, 1417.0, 1417.0, 1417.0, 1415.0, 1417.0, 1418.0, 1417.0, 1416.0, 1417.0, 1418.0, 1419.0, 1417.0, 1415.0, 1417.0, 1417.0, 1419.0, 1420.0, 1418.0, 1417.0, 1418.0, 1420.0, 1422.0, 1419.0, 1419.0, 1420.0, 1421.0, 1420.0, 1418.0, 1420.0, 1420.0, 1420.0, 1419.0, 1418.0, 1419.0, 1419.0, 1418.0, 1418.0, 1418.0, 1418.0, 1420.0, 1422.0, 1421.0, 1422.0, 1422.0, 1423.0, 1424.0, 1421.0, 1421.0, 1424.0, 1423.0, 1423.0, 1422.0, 1424.0, 1427.0, 1424.0, 1426.0, 1427.0, 1424.0, 1422.0, 1423.0, 1423.0, 1424.0, 1421.0, 1421.0, 1422.0, 1423.0, 1421.0, 1423.0, 1420.0, 1422.0, 1421.0, 1420.0, 1422.0, 1423.0, 1422.0, 1422.0, 1424.0, 1421.0, 1419.0, 1419.0, 1421.0, 1420.0, 1419.0, 1415.0, 1415.0, 1417.0, 1419.0, 1419.0, 1419.0, 1420.0, 1420.0, 1424.0, 1424.0, 1425.0, 1425.0, 1424.0, 1424.0, 1423.0, 1424.0, 1426.0, 1424.0, 1428.0, 1428.0, 1427.0, 1429.0, 1429.0, 1428.0, 1429.0, 1430.0, 1429.0, 1428.0, 1425.0, 1427.0, 1428.0, 1429.0, 1428.0, 1428.0, 1429.0, 1427.0, 1424.0, 1426.0, 1426.0, 1429.0, 1428.0, 1427.0, 1427.0, 1425.0, 1426.0, 1427.0, 1427.0, 1429.0, 1428.0, 1429.0, 1429.0, 1429.0, 1433.0, 1431.0, 1432.0, 1431.0, 1431.0, 1426.0, 1425.0, 1426.0, 1428.0, 1429.0, 1432.0, 1428.0, 1428.0, 1430.0, 1430.0, 1432.0, 1429.0, 1429.0, 1429.0, 1429.0, 1428.0, 1427.0, 1431.0, 1431.0, 1432.0, 1435.0, 1429.0, 1425.0, 1424.0, 1428.0, 1428.0, 1427.0, 1428.0, 1430.0, 1432.0, 1433.0, 1434.0, 1432.0, 1431.0, 1428.0, 1426.0, 1428.0, 1432.0, 1432.0, 1433.0, 1430.0, 1432.0, 1431.0, 1432.0, 1433.0, 1432.0, 1432.0, 1434.0, 1434.0, 1434.0, 1433.0, 1432.0, 1433.0, 1431.0, 1432.0, 1435.0, 1433.0, 1434.0, 1432.0, 1431.0]
    },
    "slices": {}
  }
}