{
  "AcquisitionMatrixPE": 74,
  "AcquisitionNumber": 1,
  "AcquisitionTime": "14:01:18.872500",
  "BandwidthPerPixelPhaseEncode": 27.579,
  "BaseResolution": 74,
  "BodyPartExamined": "HEAD",
  "CoilString": "t:HEA;HEP",
  "ConversionSoftware": "dcm2niix",
  "ConversionSoftwareVersion": "v1.0.20190410  GCC6.3.0",
  "DerivedVendorReportedEchoSpacing": 0.000489993,
  "DeviceSerialNumber": "35256",
  "DwellTime": 2.4e-06,
  "EchoTime": 0.03,
  "EffectiveEchoSpacing": 0.000489993,
  "FlipAngle": 70,
  "ImageOrientationPatientDICOM": [1, 0, 0, 0, 1, 0],
  "ImageType": [
    "ORIGINAL",
    "PRIMARY",
    "M",
    "ND",
    "NORM",
    "MOSAIC"
],
  "ImagingFrequency": 123.223,
  "InPlanePhaseEncodingDirectionDICOM": "COL",
  "InstitutionAddress": "East_Lee_St._2907_Greensboro_NC_US_27401",
  "InstitutionName": "JSNN",
  "InstitutionalDepartmentName": "Department",
  "MRAcquisitionType": "2D",
  "MagneticFieldStrength": 3,
  "Manufacturer": "Siemens",
  "ManufacturersModelName": "TrioTim",
  "Modality": "MR",
  "PartialFourier": 1,
  "PatientPosition": "HFS",
  "PercentPhaseFOV": 100,
  "PhaseEncodingDirection": "j-",
  "PhaseEncodingSteps": 74,
  "PhaseResolution": 1,
  "PixelBandwidth": 2815,
  "ProcedureStepDescription": "head_Cassidy",
  "ProtocolName": "RestingState",
  "PulseSequenceDetails": "%SiemensSeq%_ep2d_bold",
  "ReceiveCoilName": "HeadMatrix",
  "ReconMatrixPE": 74,
  "RepetitionTime": 2,
  "SAR": 0.10193,
  "ScanOptions": "FS",
  "ScanningSequence": "EP",
  "SequenceName": "_epfid2d1_74",
  "SequenceVariant": "SK",
  "SeriesDescription": "RestingState",
  "SeriesNumber": 3,
  "ShimSetting": [1403, 10559, -8784, 535, -1, -435, 251, -13],
  "SliceThickness": 4,
  "SliceTiming": [1.945, 1.8825, 1.82, 1.7575, 1.695, 1.6325, 1.57, 1.505, 1.4425, 1.38, 1.3175, 1.255, 1.1925, 1.13, 1.0675, 1.005, 0.9425, 0.88, 0.815, 0.7525, 0.69, 0.6275, 0.565, 0.5025, 0.44, 0.3775, 0.315, 0.2525, 0.19, 0.125, 0.0625, 0],
  "SoftwareVersions": "syngo_MR_B19",
  "SpacingBetweenSlices": 4,
  "StationName": "JSNNMRI",
  "TaskName": "rest",
  "TotalReadoutTime": 0.0357695,
  "TxRefAmp": 272.988,
  "dcmmeta_affine": [
    [-2.972972869873047, 0.0, 0.0, 105.18071746826172],
    [0.0, 2.972972869873047, 0.0, -90.79087829589844],
    [0.0, 0.0, 4.0, -77.3686752319336],
    [0.0, 0.0, 0.0, 1.0]
],
  "dcmmeta_reorient_transform": [
    [0.0, -1.0, 0.0, 73.0],
    [1.0, 0.0, 0.0, 0.0],
    [0.0, 0.0, 1.0, 0.0],
    [0.0, 0.0, 0.0, 1.0]
],
  "dcmmeta_shape": [74, 74, 32, 300],
  "dcmmeta_slice_dim": 2,
  "dcmmeta_version": 0.6,
  "global": {
    "const": {
      "AcquisitionMatrix": [74, 0, 0, 74],
      "AngioFlag": "N",
      "BitsAllocated": 16,
      "BitsStored": 12,
      "BodyPartExamined": "HEAD",
      "Columns": 444,
      "EchoNumbers": 1,
      "EchoTime": 30.0,
      "EchoTrainLength": 1,
      "FlipAngle": 70.0,
      "HighBit": 11,
      "ImageOrientationPatient": [1.0, 0.0, 0.0, 0.0, 1.0, 0.0],
      "ImagePositionPatient": [-655.18069982529, -676.23612213135, -77.368675231934],
      "ImageType": [
        "ORIGINAL",
        "PRIMARY",
        "M",
        "ND",
        "NORM",
        "MOSAIC"
],
      "ImagedNucleus": "1H",
      "ImagingFrequency": 123.22319,
      "InPlanePhaseEncodingDirection": "COL",
      "MRAcquisitionType": "2D",
      "MagneticFieldStrength": 3.0,
      "Manufacturer": "SIEMENS",
      "ManufacturerModelName": "TrioTim",
      "Modality": "MR",
      "NumberOfAverages": 1.0,
      "NumberOfPhaseEncodingSteps": 74,
      "PercentPhaseFieldOfView": 100.0,
      "PercentSampling": 100.0,
      "PerformedProcedureStepStartTime": "133720.708000",
      "PhotometricInterpretation": "MONOCHROME2",
      "PixelBandwidth": 2815.0,
      "PixelRepresentation": 0,
      "PixelSpacing": [2.972972869873, 2.972972869873],
      "ProtocolName": "RestingState",
      "RepetitionTime": 2000.0,
      "Rows": 444,
      "SAR": 0.10193023946831,
      "SamplesPerPixel": 1,
      "ScanOptions": "FS",
      "ScanningSequence": "EP",
      "SequenceName": "*epfid2d1_74",
      "SequenceVariant": "SK",
      "SeriesDescription": "RestingState",
      "SeriesNumber": 3,
      "SeriesTime": "140204.009000",
      "SliceLocation": -77.368675231934,
      "SliceThickness": 4.0,
      "SmallestImagePixelValue": 0,
      "SoftwareVersions": "syngo MR B19",
      "SpacingBetweenSlices": 4.0,
      "SpecificCharacterSet": "ISO_IR 100",
      "StudyID": "1",
      "StudyTime": "133720.643000",
      "TransmitCoilName": "Body",
      "VariableFlipAngleFlag": "N",
      "WindowCenterWidthExplanation": "Algo1",
      "dBdt": 0.0},
    "slices": {}
  },
  "time": {
    "samples": {
      "AcquisitionNumber": [1, 2, 3, 4, 5, 6, 7, 8, 9, 10, 11, 12, 13, 14, 15, 16, 17, 18, 19, 20, 21, 22, 23, 24, 25, 26, 27, 28, 29, 30, 31, 32, 33, 34, 35, 36, 37, 38, 39, 40, 41, 42, 43, 44, 45, 46, 47, 48, 49, 50, 51, 52, 53, 54, 55, 56, 57, 58, 59, 60, 61, 62, 63, 64, 65, 66, 67, 68, 69, 70, 71, 72, 73, 74, 75, 76, 77, 78, 79, 80, 81, 82, 83, 84, 85, 86, 87, 88, 89, 90, 91, 92, 93, 94, 95, 96, 97, 98, 99, 100, 101, 102, 103, 104, 105, 106, 107, 108, 109, 110, 111, 112, 113, 114, 115, 116, 117, 118, 119, 120, 121, 122, 123, 124, 125, 126, 127, 128, 129, 130, 131, 132, 133, 134, 135, 136, 137, 138, 139, 140, 141, 142, 143, 144, 145, 146, 147, 148, 149, 150, 151, 152, 153, 154, 155, 156, 157, 158, 159, 160, 161, 162, 163, 164, 165, 166, 167, 168, 169, 170, 171, 172, 173, 174, 175, 176, 177, 178, 179, 180, 181, 182, 183, 184, 185, 186, 187, 188, 189, 190, 191, 192, 193, 194, 195, 196, 197, 198, 199, 200, 201, 202, 203, 204, 205, 206, 207, 208, 209, 210, 211, 212, 213, 214, 215, 216, 217, 218, 219, 220, 221, 222, 223, 224, 225, 226, 227, 228, 229, 230, 231, 232, 233, 234, 235, 236, 237, 238, 239, 240, 241, 242, 243, 244, 245, 246, 247, 248, 249, 250, 251, 252, 253, 254, 255, 256, 257, 258, 259, 260, 261, 262, 263, 264, 265, 266, 267, 268, 269, 270, 271, 272, 273, 274, 275, 276, 277, 278, 279, 280, 281, 282, 283, 284, 285, 286, 287, 288, 289, 290, 291, 292, 293, 294, 295, 296, 297, 298, 299, 300],
      "AcquisitionTime": ["140118.872500", "140120.880000", "140122.890000", "140124.897500", "140126.905000", "140128.912500", "140130.920000", "140132.930000", "140134.937500", "140136.945000", "140138.952500", "140140.960000", "140142.970000", "140144.977500", "140146.985000", "140148.992500", "140151.000000", "140153.010000", "140155.017500", "140157.025000", "140159.032500", "140201.042500", "140203.050000", "140205.057500", "140207.065000", "140209.072500", "140211.082500", "140213.090000", "140215.097500", "140217.105000", "140219.112500", "140221.122500", "140223.130000", "140225.137500", "140227.145000", "140229.155000", "140231.162500", "140233.170000", "140235.177500", "140237.185000", "140239.195000", "140241.202500", "140243.210000", "140245.217500", "140247.225000", "140249.235000", "140251.242500", "140253.250000", "140255.257500", "140257.267500", "140259.275000", "140301.282500", "140303.290000", "140305.297500", "140307.307500", "140309.315000", "140311.322500", "140313.330000", "140315.337500", "140317.347500", "140319.355000", "140321.362500", "140323.370000", "140325.377500", "140327.387500", "140329.395000", "140331.402500", "140333.410000", "140335.420000", "140337.427500", "140339.435000", "140341.442500", "140343.450000", "140345.460000", "140347.467500", "140349.475000", "140351.482500", "140353.490000", "140355.500000", "140357.507500", "140359.515000", "140401.522500", "140403.532500", "140405.540000", "140407.547500", "140409.555000", "140411.562500", "140413.572500", "140415.580000", "140417.587500", "140419.595000", "140421.602500", "140423.612500", "140425.620000", "140427.627500", "140429.635000", "140431.645000", "140433.652500", "140435.660000", "140437.667500", "140439.675000", "140441.685000", "140443.692500", "140445.700000", "140447.707500", "140449.715000", "140451.725000", "140453.732500", "140455.740000", "140457.747500", "140459.757500", "140501.765000", "140503.772500", "140505.780000", "140507.787500", "140509.797500", "140511.805000", "140513.812500", "140515.820000", "140517.827500", "140519.837500", "140521.845000", "140523.852500", "140525.860000", "140527.867500", "140529.877500", "140531.885000", "140533.892500", "140535.900000", "140537.910000", "140539.917500", "140541.925000", "140543.932500", "140545.940000", "140547.950000", "140549.957500", "140551.965000", "140553.972500", "140555.980000", "140557.990000", "140559.997500", "140602.005000", "140604.012500", "140606.022500", "140608.030000", "140610.037500", "140612.045000", "140614.052500", "140616.062500", "140618.070000", "140620.077500", "140622.085000", "140624.092500", "140626.102500", "140628.110000", "140630.117500", "140632.125000", "140634.135000", "140636.142500", "140638.150000", "140640.157500", "140642.165000", "140644.175000", "140646.182500", "140648.190000", "140650.197500", "140652.205000", "140654.215000", "140656.222500", "140658.230000", "140700.237500", "140702.245000", "140704.255000", "140706.262500", "140708.270000", "140710.277500", "140712.287500", "140714.295000", "140716.302500", "140718.310000", "140720.317500", "140722.327500", "140724.335000", "140726.342500", "140728.350000", "140730.357500", "140732.367500", "140734.375000", "140736.382500", "140738.390000", "140740.400000", "140742.407500", "140744.415000", "140746.422500", "140748.430000", "140750.440000", "140752.447500", "140754.455000", "140756.462500", "140758.470000", "140800.480000", "140802.487500", "140804.495000", "140806.502500", "140808.512500", "140810.520000", "140812.527500", "140814.535000", "140816.542500", "140818.552500", "140820.560000", "140822.567500", "140824.575000", "140826.582500", "140828.592500", "140830.600000", "140832.607500", "140834.615000", "140836.622500", "140838.632500", "140840.640000", "140842.647500", "140844.655000", "140846.665000", "140848.672500", "140850.680000", "140852.687500", "140854.695000", "140856.705000", "140858.712500", "140900.720000", "140902.727500", "140904.735000", "140906.745000", "140908.752500", "140910.760000", "140912.767500", "140914.777500", "140916.785000", "140918.792500", "140920.800000", "140922.807500", "140924.817500", "140926.825000", "140928.832500", "140930.840000", "140932.847500", "140934.857500", "140936.865000", "140938.872500", "140940.880000", "140942.890000", "140944.897500", "140946.905000", "140948.912500", "140950.920000", "140952.930000", "140954.937500", "140956.945000", "140958.952500", "141000.960000", "141002.970000", "141004.977500", "141006.985000", "141008.992500", "141011.000000", "141013.010000", "141015.017500", "141017.025000", "141019.032500", "141021.042500", "141023.050000", "141025.057500", "141027.065000", "141029.072500", "141031.082500", "141033.090000", "141035.097500", "141037.105000", "141039.112500", "141041.122500", "141043.130000", "141045.137500", "141047.145000", "141049.155000", "141051.162500", "141053.170000", "141055.177500", "141057.185000", "141059.195000", "141101.202500", "141103.210000", "141105.217500", "141107.225000", "141109.235000", "141111.242500", "141113.250000", "141115.257500", "141117.267500", "141119.275000"],
      "ContentTime": ["140204.012000", "140204.014000", "140204.017000", "140204.019000", "140204.019000", "140204.022000", "140204.024000", "140204.027000", "140204.029000", "140204.029000", "140204.032000", "140204.034000", "140204.037000", "140204.037000", "140204.039000", "140204.049000", "140204.054000", "140204.057000", "140204.059000", "140204.059000", "140204.062000", "140204.064000", "140244.007000", "140244.010000", "140244.012000", "140244.015000", "140244.017000", "140244.017000", "140244.020000", "140244.022000", "140244.025000", "140244.025000", "140244.027000", "140244.030000", "140244.032000", "140244.032000", "140244.035000", "140244.037000", "140244.040000", "140244.040000", "140244.042000", "140244.045000", "140324.008000", "140324.010000", "140324.013000", "140324.015000", "140324.018000", "140324.018000", "140324.020000", "140324.023000", "140324.025000", "140324.025000", "140324.028000", "140324.038000", "140324.040000", "140324.043000", "140324.045000", "140324.045000", "140324.048000", "140324.050000", "140324.053000", "140324.055000", "140404.008000", "140404.011000", "140404.013000", "140404.016000", "140404.018000", "140404.018000", "140404.021000", "140404.023000", "140404.026000", "140404.026000", "140404.028000", "140404.031000", "140404.033000", "140404.033000", "140404.036000", "140404.038000", "140404.041000", "140404.041000", "140404.043000", "140404.046000", "140444.007000", "140444.009000", "140444.012000", "140444.014000", "140444.017000", "140444.017000", "140444.019000", "140444.022000", "140444.024000", "140444.024000", "140444.027000", "140444.029000", "140444.032000", "140444.034000", "140444.034000", "140444.037000", "140444.039000", "140444.042000", "140444.042000", "140444.044000", "140524.007000", "140524.010000", "140524.012000", "140524.015000", "140524.017000", "140524.017000", "140524.020000", "140524.022000", "140524.025000", "140524.025000", "140524.027000", "140524.037000", "140524.037000", "140524.040000", "140524.042000", "140524.045000", "140524.045000", "140524.047000", "140524.050000", "140524.052000", "140604.008000", "140604.015000", "140604.018000", "140604.020000", "140604.023000", "140604.025000", "140604.025000", "140604.028000", "140604.030000", "140604.033000", "140604.033000", "140604.035000", "140604.038000", "140604.040000", "140604.040000", "140604.043000", "140604.045000", "140604.048000", "140604.048000", "140604.050000", "140644.008000", "140644.011000", "140644.013000", "140644.016000", "140644.018000", "140644.018000", "140644.021000", "140644.023000", "140644.026000", "140644.026000", "140644.028000", "140644.031000", "140644.033000", "140644.033000", "140644.036000", "140644.038000", "140644.041000", "140644.043000", "140644.043000", "140644.046000", "140724.006000", "140724.009000", "140724.011000", "140724.014000", "140724.016000", "140724.016000", "140724.019000", "140724.021000", "140724.024000", "140724.024000", "140724.026000", "140724.036000", "140724.039000", "140724.041000", "140724.044000", "140724.044000", "140724.046000", "140724.049000", "140724.051000", "140724.051000", "140804.007000", "140804.010000", "140804.012000", "140804.015000", "140804.017000", "140804.017000", "140804.020000", "140804.022000", "140804.025000", "140804.025000", "140804.027000", "140804.030000", "140804.032000", "140804.032000", "140804.035000", "140804.037000", "140804.040000", "140804.040000", "140804.042000", "140804.045000", "140844.008000", "140844.010000", "140844.013000", "140844.015000", "140844.018000", "140844.018000", "140844.020000", "140844.023000", "140844.025000", "140844.025000", "140844.028000", "140844.033000", "140844.035000", "140844.038000", "140844.040000", "140844.040000", "140844.043000", "140844.045000", "140844.048000", "140844.050000", "140924.008000", "140924.011000", "140924.013000", "140924.016000", "140924.018000", "140924.018000", "140924.021000", "140924.023000", "140924.026000", "140924.026000", "140924.028000", "140924.031000", "140924.033000", "140924.033000", "140924.036000", "140924.038000", "140924.041000", "140924.043000", "140924.043000", "140924.046000", "141004.006000", "141004.009000", "141004.011000", "141004.014000", "141004.016000", "141004.016000", "141004.019000", "141004.021000", "141004.024000", "141004.024000", "141004.026000", "141004.029000", "141004.031000", "141004.034000", "141004.034000", "141004.036000", "141004.039000", "141004.041000", "141004.041000", "141004.044000", "141044.020000", "141044.020000", "141044.022000", "141044.025000", "141044.027000", "141044.030000", "141044.030000", "141044.032000", "141044.035000", "141044.037000", "141044.037000", "141044.040000", "141044.042000", "141044.105000", "141044.107000", "141044.107000", "141044.110000", "141044.112000", "141044.115000", "141044.115000", "141118.723000", "141118.725000", "141118.728000", "141118.728000", "141118.730000", "141118.733000", "141118.735000", "141118.738000", "141118.738000", "141118.740000", "141118.743000", "141118.745000", "141118.745000", "141118.748000", "141118.750000", "141118.753000", "141118.753000", "141118.755000"],
      "InstanceCreationTime": ["140204.012000", "140204.014000", "140204.017000", "140204.019000", "140204.019000", "140204.022000", "140204.024000", "140204.027000", "140204.029000", "140204.029000", "140204.032000", "140204.034000", "140204.037000", "140204.037000", "140204.039000", "140204.049000", "140204.054000", "140204.057000", "140204.059000", "140204.059000", "140204.062000", "140204.064000", "140244.007000", "140244.010000", "140244.012000", "140244.015000", "140244.017000", "140244.017000", "140244.020000", "140244.022000", "140244.025000", "140244.025000", "140244.027000", "140244.030000", "140244.032000", "140244.032000", "140244.035000", "140244.037000", "140244.040000", "140244.040000", "140244.042000", "140244.045000", "140324.008000", "140324.010000", "140324.013000", "140324.015000", "140324.018000", "140324.018000", "140324.020000", "140324.023000", "140324.025000", "140324.025000", "140324.028000", "140324.038000", "140324.040000", "140324.043000", "140324.045000", "140324.045000", "140324.048000", "140324.050000", "140324.053000", "140324.055000", "140404.008000", "140404.011000", "140404.013000", "140404.016000", "140404.018000", "140404.018000", "140404.021000", "140404.023000", "140404.026000", "140404.026000", "140404.028000", "140404.031000", "140404.033000", "140404.033000", "140404.036000", "140404.038000", "140404.041000", "140404.041000", "140404.043000", "140404.046000", "140444.007000", "140444.009000", "140444.012000", "140444.014000", "140444.017000", "140444.017000", "140444.019000", "140444.022000", "140444.024000", "140444.024000", "140444.027000", "140444.029000", "140444.032000", "140444.034000", "140444.034000", "140444.037000", "140444.039000", "140444.042000", "140444.042000", "140444.044000", "140524.007000", "140524.010000", "140524.012000", "140524.015000", "140524.017000", "140524.017000", "140524.020000", "140524.022000", "140524.025000", "140524.025000", "140524.027000", "140524.037000", "140524.037000", "140524.040000", "140524.042000", "140524.045000", "140524.045000", "140524.047000", "140524.050000", "140524.052000", "140604.008000", "140604.015000", "140604.018000", "140604.020000", "140604.023000", "140604.025000", "140604.025000", "140604.028000", "140604.030000", "140604.033000", "140604.033000", "140604.035000", "140604.038000", "140604.040000", "140604.040000", "140604.043000", "140604.045000", "140604.048000", "140604.048000", "140604.050000", "140644.008000", "140644.011000", "140644.013000", "140644.016000", "140644.018000", "140644.018000", "140644.021000", "140644.023000", "140644.026000", "140644.026000", "140644.028000", "140644.031000", "140644.033000", "140644.033000", "140644.036000", "140644.038000", "140644.041000", "140644.043000", "140644.043000", "140644.046000", "140724.006000", "140724.009000", "140724.011000", "140724.014000", "140724.016000", "140724.016000", "140724.019000", "140724.021000", "140724.024000", "140724.024000", "140724.026000", "140724.036000", "140724.039000", "140724.041000", "140724.044000", "140724.044000", "140724.046000", "140724.049000", "140724.051000", "140724.051000", "140804.007000", "140804.010000", "140804.012000", "140804.015000", "140804.017000", "140804.017000", "140804.020000", "140804.022000", "140804.025000", "140804.025000", "140804.027000", "140804.030000", "140804.032000", "140804.032000", "140804.035000", "140804.037000", "140804.040000", "140804.040000", "140804.042000", "140804.045000", "140844.008000", "140844.010000", "140844.013000", "140844.015000", "140844.018000", "140844.018000", "140844.020000", "140844.023000", "140844.025000", "140844.025000", "140844.028000", "140844.033000", "140844.035000", "140844.038000", "140844.040000", "140844.040000", "140844.043000", "140844.045000", "140844.048000", "140844.050000", "140924.008000", "140924.011000", "140924.013000", "140924.016000", "140924.018000", "140924.018000", "140924.021000", "140924.023000", "140924.026000", "140924.026000", "140924.028000", "140924.031000", "140924.033000", "140924.033000", "140924.036000", "140924.038000", "140924.041000", "140924.043000", "140924.043000", "140924.046000", "141004.006000", "141004.009000", "141004.011000", "141004.014000", "141004.016000", "141004.016000", "141004.019000", "141004.021000", "141004.024000", "141004.024000", "141004.026000", "141004.029000", "141004.031000", "141004.034000", "141004.034000", "141004.036000", "141004.039000", "141004.041000", "141004.041000", "141004.044000", "141044.020000", "141044.020000", "141044.022000", "141044.025000", "141044.027000", "141044.030000", "141044.030000", "141044.032000", "141044.035000", "141044.037000", "141044.037000", "141044.040000", "141044.042000", "141044.105000", "141044.107000", "141044.107000", "141044.110000", "141044.112000", "141044.115000", "141044.115000", "141118.723000", "141118.725000", "141118.728000", "141118.728000", "141118.730000", "141118.733000", "141118.735000", "141118.738000", "141118.738000", "141118.740000", "141118.743000", "141118.745000", "141118.745000", "141118.748000", "141118.750000", "141118.753000", "141118.753000", "141118.755000"],
      "InstanceNumber": [1, 2, 3, 4, 5, 6, 7, 8, 9, 10, 11, 12, 13, 14, 15, 16, 17, 18, 19, 20, 21, 22, 23, 24, 25, 26, 27, 28, 29, 30, 31, 32, 33, 34, 35, 36, 37, 38, 39, 40, 41, 42, 43, 44, 45, 46, 47, 48, 49, 50, 51, 52, 53, 54, 55, 56, 57, 58, 59, 60, 61, 62, 63, 64, 65, 66, 67, 68, 69, 70, 71, 72, 73, 74, 75, 76, 77, 78, 79, 80, 81, 82, 83, 84, 85, 86, 87, 88, 89, 90, 91, 92, 93, 94, 95, 96, 97, 98, 99, 100, 101, 102, 103, 104, 105, 106, 107, 108, 109, 110, 111, 112, 113, 114, 115, 116, 117, 118, 119, 120, 121, 122, 123, 124, 125, 126, 127, 128, 129, 130, 131, 132, 133, 134, 135, 136, 137, 138, 139, 140, 141, 142, 143, 144, 145, 146, 147, 148, 149, 150, 151, 152, 153, 154, 155, 156, 157, 158, 159, 160, 161, 162, 163, 164, 165, 166, 167, 168, 169, 170, 171, 172, 173, 174, 175, 176, 177, 178, 179, 180, 181, 182, 183, 184, 185, 186, 187, 188, 189, 190, 191, 192, 193, 194, 195, 196, 197, 198, 199, 200, 201, 202, 203, 204, 205, 206, 207, 208, 209, 210, 211, 212, 213, 214, 215, 216, 217, 218, 219, 220, 221, 222, 223, 224, 225, 226, 227, 228, 229, 230, 231, 232, 233, 234, 235, 236, 237, 238, 239, 240, 241, 242, 243, 244, 245, 246, 247, 248, 249, 250, 251, 252, 253, 254, 255, 256, 257, 258, 259, 260, 261, 262, 263, 264, 265, 266, 267, 268, 269, 270, 271, 272, 273, 274, 275, 276, 277, 278, 279, 280, 281, 282, 283, 284, 285, 286, 287, 288, 289, 290, 291, 292, 293, 294, 295, 296, 297, 298, 299, 300],
      "LargestImagePixelValue": [1560, 1526, 1714, 1506, 1605, 1527, 1639, 1486, 1550, 1509, 1577, 1564, 1497, 1762, 1478, 1543, 1531, 1557, 1559, 1534, 1510, 1458, 1547, 1533, 1564, 1501, 1628, 1707, 1542, 1634, 1574, 1619, 1559, 1540, 1883, 1509, 1624, 1580, 1528, 1523, 1576, 1531, 1572, 1641, 1574, 1499, 1600, 1619, 1624, 1554, 1569, 1730, 1529, 1538, 1579, 1816, 1527, 1691, 1536, 1583, 1791, 1549, 1781, 1533, 1663, 1498, 1602, 1712, 1588, 1826, 1548, 1652, 1806, 1852, 1516, 1710, 1556, 1807, 1519, 1732, 1591, 1666, 1599, 1584, 1736, 1542, 1652, 1649, 1637, 1533, 1659, 1572, 1754, 1920, 1590, 1688, 1597, 1620, 1838, 1716, 1584, 1724, 1546, 1800, 1560, 1687, 1683, 1582, 1751, 1571, 1662, 1679, 1693, 1812, 1670, 1693, 1842, 1561, 1684, 1672, 1675, 1675, 1826, 1611, 1866, 1590, 1691, 1764, 1574, 1779, 1645, 1768, 1658, 1691, 1820, 1599, 1656, 1967, 1607, 1640, 1800, 1638, 1728, 1835, 1499, 1617, 1774, 1707, 1694, 1589, 1754, 1682, 1822, 1664, 1743, 1776, 1703, 1790, 1726, 1763, 1607, 1759, 1827, 1560, 1681, 1707, 1630, 1743, 1766, 1612, 1780, 1860, 1552, 1799, 1685, 1715, 1797, 1703, 1726, 1700, 1642, 1756, 1968, 1626, 1659, 1821, 1658, 1785, 1930, 1684, 1705, 1741, 1888, 1955, 1881, 1677, 1816, 1873, 1721, 1819, 1603, 1908, 1711, 1701, 2002, 1643, 1801, 1719, 1774, 1873, 1735, 1841, 1877, 1622, 1805, 1892, 1764, 1785, 1615, 1828, 2079, 1778, 1868, 1806, 1818, 1879, 1817, 1907, 1989, 1664, 1896, 1825, 2067, 1705, 1928, 1753, 1905, 2205, 1716, 2107, 1736, 2006, 1715, 1829, 1816, 1845, 2007, 1834, 1800, 1849, 2033, 1711, 1898, 1868, 2197, 1801, 1901, 2164, 1709, 1956, 1860, 1855, 1971, 1728, 1739, 1792, 2057, 1691, 1947, 1816, 1794, 1991, 1762, 1898, 2039, 1763, 1941, 1861, 1855, 1956, 1710, 1830, 1947, 1793, 2187, 1766, 1981, 1821, 1790, 2003, 1716, 1896, 1973, 1795, 1880, 1889, 2078, 1774, 1955, 1750],
      "WindowCenter": [607.0, 604.0, 606.0, 605.0, 606.0, 606.0, 608.0, 606.0, 606.0, 606.0, 606.0, 606.0, 604.0, 606.0, 604.0, 604.0, 604.0, 604.0, 604.0, 606.0, 604.0, 603.0, 605.0, 605.0, 607.0, 607.0, 609.0, 608.0, 608.0, 609.0, 608.0, 608.0, 607.0, 606.0, 608.0, 605.0, 606.0, 606.0, 605.0, 606.0, 606.0, 607.0, 608.0, 607.0, 606.0, 605.0, 606.0, 606.0, 608.0, 607.0, 606.0, 608.0, 606.0, 610.0, 608.0, 608.0, 606.0, 608.0, 606.0, 606.0, 608.0, 606.0, 609.0, 607.0, 610.0, 607.0, 608.0, 609.0, 609.0, 610.0, 609.0, 610.0, 612.0, 610.0, 607.0, 609.0, 607.0, 609.0, 608.0, 609.0, 609.0, 610.0, 608.0, 608.0, 608.0, 608.0, 609.0, 610.0, 610.0, 609.0, 610.0, 610.0, 611.0, 611.0, 609.0, 609.0, 609.0, 609.0, 610.0, 610.0, 613.0, 613.0, 609.0, 612.0, 610.0, 612.0, 612.0, 610.0, 611.0, 609.0, 610.0, 610.0, 611.0, 612.0, 611.0, 611.0, 611.0, 610.0, 611.0, 611.0, 610.0, 611.0, 613.0, 611.0, 612.0, 611.0, 612.0, 614.0, 611.0, 612.0, 612.0, 613.0, 612.0, 611.0, 611.0, 610.0, 610.0, 612.0, 611.0, 615.0, 613.0, 611.0, 612.0, 612.0, 609.0, 614.0, 612.0, 611.0, 612.0, 612.0, 614.0, 615.0, 614.0, 613.0, 613.0, 614.0, 613.0, 613.0, 612.0, 613.0, 612.0, 613.0, 612.0, 611.0, 612.0, 612.0, 611.0, 612.0, 614.0, 614.0, 613.0, 613.0, 611.0, 613.0, 612.0, 613.0, 613.0, 613.0, 613.0, 614.0, 617.0, 616.0, 616.0, 613.0, 613.0, 615.0, 614.0, 614.0, 615.0, 613.0, 613.0, 615.0, 615.0, 618.0, 614.0, 613.0, 613.0, 614.0, 614.0, 615.0, 613.0, 615.0, 614.0, 615.0, 619.0, 614.0, 614.0, 613.0, 615.0, 616.0, 614.0, 614.0, 615.0, 613.0, 613.0, 615.0, 614.0, 616.0, 615.0, 617.0, 618.0, 617.0, 617.0, 616.0, 616.0, 619.0, 616.0, 615.0, 615.0, 612.0, 614.0, 613.0, 618.0, 615.0, 615.0, 614.0, 617.0, 618.0, 616.0, 617.0, 615.0, 615.0, 613.0, 614.0, 614.0, 614.0, 615.0, 616.0, 617.0, 615.0, 617.0, 615.0, 616.0, 617.0, 620.0, 617.0, 615.0, 617.0, 614.0, 615.0, 614.0, 613.0, 615.0, 615.0, 615.0, 615.0, 617.0, 614.0, 616.0, 616.0, 616.0, 617.0, 615.0, 617.0, 617.0, 616.0, 617.0, 616.0, 616.0, 616.0, 615.0, 615.0, 617.0, 617.0, 619.0, 617.0, 618.0, 617.0, 617.0, 618.0, 615.0, 616.0, 616.0, 616.0, 616.0, 619.0, 619.0, 615.0, 617.0, 616.0],
      "WindowWidth": [1273.0, 1268.0, 1272.0, 1269.0, 1271.0, 1272.0, 1275.0, 1271.0, 1272.0, 1271.0, 1270.0, 1270.0, 1267.0, 1271.0, 1266.0, 1267.0, 1268.0, 1267.0, 1266.0, 1271.0, 1268.0, 1264.0, 1268.0, 1270.0, 1275.0, 1274.0, 1278.0, 1276.0, 1275.0, 1277.0, 1276.0, 1275.0, 1274.0, 1271.0, 1276.0, 1270.0, 1272.0, 1272.0, 1270.0, 1271.0, 1272.0, 1274.0, 1276.0, 1273.0, 1271.0, 1269.0, 1272.0, 1272.0, 1275.0, 1274.0, 1272.0, 1275.0, 1272.0, 1279.0, 1274.0, 1276.0, 1272.0, 1276.0, 1271.0, 1271.0, 1276.0, 1272.0, 1279.0, 1274.0, 1280.0, 1275.0, 1277.0, 1277.0, 1277.0, 1279.0, 1278.0, 1279.0, 1285.0, 1279.0, 1273.0, 1277.0, 1274.0, 1278.0, 1277.0, 1277.0, 1277.0, 1279.0, 1275.0, 1275.0, 1277.0, 1275.0, 1277.0, 1282.0, 1281.0, 1278.0, 1281.0, 1280.0, 1282.0, 1282.0, 1278.0, 1278.0, 1278.0, 1278.0, 1279.0, 1280.0, 1287.0, 1286.0, 1278.0, 1283.0, 1280.0, 1283.0, 1284.0, 1281.0, 1283.0, 1278.0, 1280.0, 1281.0, 1282.0, 1285.0, 1282.0, 1282.0, 1282.0, 1280.0, 1281.0, 1281.0, 1281.0, 1283.0, 1287.0, 1282.0, 1284.0, 1282.0, 1285.0, 1289.0, 1283.0, 1286.0, 1284.0, 1286.0, 1283.0, 1282.0, 1283.0, 1280.0, 1280.0, 1284.0, 1282.0, 1291.0, 1287.0, 1282.0, 1284.0, 1285.0, 1279.0, 1289.0, 1285.0, 1282.0, 1284.0, 1284.0, 1288.0, 1291.0, 1289.0, 1286.0, 1287.0, 1288.0, 1287.0, 1286.0, 1284.0, 1288.0, 1285.0, 1286.0, 1285.0, 1283.0, 1285.0, 1286.0, 1283.0, 1284.0, 1289.0, 1290.0, 1287.0, 1286.0, 1283.0, 1287.0, 1285.0, 1286.0, 1287.0, 1286.0, 1286.0, 1289.0, 1297.0, 1292.0, 1294.0, 1286.0, 1287.0, 1292.0, 1289.0, 1289.0, 1290.0, 1287.0, 1287.0, 1290.0, 1291.0, 1297.0, 1290.0, 1286.0, 1287.0, 1289.0, 1289.0, 1291.0, 1288.0, 1291.0, 1288.0, 1290.0, 1299.0, 1289.0, 1288.0, 1286.0, 1291.0, 1293.0, 1290.0, 1289.0, 1290.0, 1286.0, 1287.0, 1291.0, 1288.0, 1294.0, 1292.0, 1295.0, 1298.0, 1295.0, 1295.0, 1294.0, 1293.0, 1299.0, 1293.0, 1291.0, 1290.0, 1285.0, 1288.0, 1286.0, 1298.0, 1292.0, 1291.0, 1290.0, 1294.0, 1297.0, 1293.0, 1295.0, 1291.0, 1292.0, 1287.0, 1289.0, 1288.0, 1289.0, 1291.0, 1292.0, 1295.0, 1291.0, 1295.0, 1290.0, 1293.0, 1295.0, 1303.0, 1295.0, 1291.0, 1294.0, 1290.0, 1291.0, 1289.0, 1287.0, 1291.0, 1290.0, 1292.0, 1291.0, 1296.0, 1289.0, 1292.0, 1292.0, 1292.0, 1296.0, 1292.0, 1295.0, 1294.0, 1292.0, 1294.0, 1293.0, 1293.0, 1293.0, 1290.0, 1291.0, 1295.0, 1296.0, 1299.0, 1295.0, 1297.0, 1295.0, 1294.0, 1297.0, 1292.0, 1294.0, 1293.0, 1294.0, 1293.0, 1301.0, 1299.0, 1292.0, 1296.0, 1293.0]
    },
    "slices": {}
  }
}