{
  "AcquisitionMatrixPE": 74,
  "AcquisitionNumber": 1,
  "AcquisitionTime": "13:16:10.910000",
  "BandwidthPerPixelPhaseEncode": 27.579,
  "BaseResolution": 74,
  "BodyPartExamined": "HEAD",
  "CoilString": "t:HEA;HEP",
  "ConversionSoftware": "dcm2niix",
  "ConversionSoftwareVersion": "v1.0.20190410  GCC6.3.0",
  "DerivedVendorReportedEchoSpacing": 0.000489993,
  "DeviceSerialNumber": "35256",
  "DwellTime": 2.4e-06,
  "EchoTime": 0.03,
  "EffectiveEchoSpacing": 0.000489993,
  "FlipAngle": 70,
  "ImageOrientationPatientDICOM": [1, 0, 0, 0, 1, 0],
  "ImageType": [
    "ORIGINAL",
    "PRIMARY",
    "M",
    "ND",
    "NORM",
    "MOSAIC"
],
  "ImagingFrequency": 123.223,
  "InPlanePhaseEncodingDirectionDICOM": "COL",
  "InstitutionAddress": "East_Lee_St._2907_Greensboro_NC_US_27401",
  "InstitutionName": "JSNN",
  "InstitutionalDepartmentName": "Department",
  "MRAcquisitionType": "2D",
  "MagneticFieldStrength": 3,
  "Manufacturer": "Siemens",
  "ManufacturersModelName": "TrioTim",
  "Modality": "MR",
  "PartialFourier": 1,
  "PatientPosition": "HFS",
  "PercentPhaseFOV": 100,
  "PhaseEncodingDirection": "j-",
  "PhaseEncodingSteps": 74,
  "PhaseResolution": 1,
  "PixelBandwidth": 2815,
  "ProcedureStepDescription": "head_Cassidy",
  "ProtocolName": "RestingState",
  "PulseSequenceDetails": "%SiemensSeq%_ep2d_bold",
  "ReceiveCoilName": "HeadMatrix",
  "ReconMatrixPE": 74,
  "RepetitionTime": 2,
  "SAR": 0.096738,
  "ScanOptions": "FS",
  "ScanningSequence": "EP",
  "SequenceName": "_epfid2d1_74",
  "SequenceVariant": "SK",
  "SeriesDescription": "RestingState",
  "SeriesNumber": 3,
  "ShimSetting": [1367, 10576, -8784, 493, 10, -312, -13, -89],
  "SliceThickness": 4,
  "SliceTiming": [1.945, 1.8825, 1.82, 1.7575, 1.695, 1.6325, 1.57, 1.5075, 1.445, 1.3825, 1.3175, 1.255, 1.1925, 1.13, 1.0675, 1.005, 0.9425, 0.88, 0.8175, 0.755, 0.69, 0.6275, 0.565, 0.5025, 0.44, 0.3775, 0.315, 0.2525, 0.19, 0.1275, 0.065, 0],
  "SoftwareVersions": "syngo_MR_B19",
  "SpacingBetweenSlices": 4,
  "StationName": "JSNNMRI",
  "TaskName": "rest",
  "TotalReadoutTime": 0.0357695,
  "TxRefAmp": 261.847,
  "dcmmeta_affine": [
    [-2.972972869873047, 0.0, 0.0, 105.18071746826172],
    [0.0, 2.972972869873047, 0.0, -110.5306396484375],
    [0.0, 0.0, 4.0, -87.23855590820312],
    [0.0, 0.0, 0.0, 1.0]
],
  "dcmmeta_reorient_transform": [
    [0.0, -1.0, 0.0, 73.0],
    [1.0, 0.0, 0.0, 0.0],
    [0.0, 0.0, 1.0, 0.0],
    [0.0, 0.0, 0.0, 1.0]
],
  "dcmmeta_shape": [74, 74, 32, 300],
  "dcmmeta_slice_dim": 2,
  "dcmmeta_version": 0.6,
  "global": {
    "const": {
      "AcquisitionMatrix": [74, 0, 0, 74],
      "AngioFlag": "N",
      "BitsAllocated": 16,
      "BitsStored": 12,
      "BodyPartExamined": "HEAD",
      "Columns": 444,
      "EchoNumbers": 1,
      "EchoTime": 30.0,
      "EchoTrainLength": 1,
      "FlipAngle": 70.0,
      "HighBit": 11,
      "ImageOrientationPatient": [1.0, 0.0, 0.0, 0.0, 1.0, 0.0],
      "ImagePositionPatient": [-655.18069982529, -656.49636268616, -87.238555908203],
      "ImageType": [
        "ORIGINAL",
        "PRIMARY",
        "M",
        "ND",
        "NORM",
        "MOSAIC"
],
      "ImagedNucleus": "1H",
      "ImagingFrequency": 123.223202,
      "InPlanePhaseEncodingDirection": "COL",
      "MRAcquisitionType": "2D",
      "MagneticFieldStrength": 3.0,
      "Manufacturer": "SIEMENS",
      "ManufacturerModelName": "TrioTim",
      "Modality": "MR",
      "NumberOfAverages": 1.0,
      "NumberOfPhaseEncodingSteps": 74,
      "PercentPhaseFieldOfView": 100.0,
      "PercentSampling": 100.0,
      "PerformedProcedureStepStartTime": "121903.259000",
      "PhotometricInterpretation": "MONOCHROME2",
      "PixelBandwidth": 2815.0,
      "PixelRepresentation": 0,
      "PixelSpacing": [2.972972869873, 2.972972869873],
      "ProtocolName": "RestingState",
      "RepetitionTime": 2000.0,
      "Rows": 444,
      "SAR": 0.09673798063008,
      "SamplesPerPixel": 1,
      "ScanOptions": "FS",
      "ScanningSequence": "EP",
      "SequenceName": "*epfid2d1_74",
      "SequenceVariant": "SK",
      "SeriesDescription": "RestingState",
      "SeriesNumber": 3,
      "SeriesTime": "131651.105000",
      "SliceLocation": -87.238555908203,
      "SliceThickness": 4.0,
      "SmallestImagePixelValue": 0,
      "SoftwareVersions": "syngo MR B19",
      "SpacingBetweenSlices": 4.0,
      "SpecificCharacterSet": "ISO_IR 100",
      "StudyID": "1",
      "StudyTime": "121903.206000",
      "TransmitCoilName": "Body",
      "VariableFlipAngleFlag": "N",
      "WindowCenterWidthExplanation": "Algo1",
      "dBdt": 0.0},
    "slices": {}
  },
  "time": {
    "samples": {
      "AcquisitionNumber": [1, 2, 3, 4, 5, 6, 7, 8, 9, 10, 11, 12, 13, 14, 15, 16, 17, 18, 19, 20, 21, 22, 23, 24, 25, 26, 27, 28, 29, 30, 31, 32, 33, 34, 35, 36, 37, 38, 39, 40, 41, 42, 43, 44, 45, 46, 47, 48, 49, 50, 51, 52, 53, 54, 55, 56, 57, 58, 59, 60, 61, 62, 63, 64, 65, 66, 67, 68, 69, 70, 71, 72, 73, 74, 75, 76, 77, 78, 79, 80, 81, 82, 83, 84, 85, 86, 87, 88, 89, 90, 91, 92, 93, 94, 95, 96, 97, 98, 99, 100, 101, 102, 103, 104, 105, 106, 107, 108, 109, 110, 111, 112, 113, 114, 115, 116, 117, 118, 119, 120, 121, 122, 123, 124, 125, 126, 127, 128, 129, 130, 131, 132, 133, 134, 135, 136, 137, 138, 139, 140, 141, 142, 143, 144, 145, 146, 147, 148, 149, 150, 151, 152, 153, 154, 155, 156, 157, 158, 159, 160, 161, 162, 163, 164, 165, 166, 167, 168, 169, 170, 171, 172, 173, 174, 175, 176, 177, 178, 179, 180, 181, 182, 183, 184, 185, 186, 187, 188, 189, 190, 191, 192, 193, 194, 195, 196, 197, 198, 199, 200, 201, 202, 203, 204, 205, 206, 207, 208, 209, 210, 211, 212, 213, 214, 215, 216, 217, 218, 219, 220, 221, 222, 223, 224, 225, 226, 227, 228, 229, 230, 231, 232, 233, 234, 235, 236, 237, 238, 239, 240, 241, 242, 243, 244, 245, 246, 247, 248, 249, 250, 251, 252, 253, 254, 255, 256, 257, 258, 259, 260, 261, 262, 263, 264, 265, 266, 267, 268, 269, 270, 271, 272, 273, 274, 275, 276, 277, 278, 279, 280, 281, 282, 283, 284, 285, 286, 287, 288, 289, 290, 291, 292, 293, 294, 295, 296, 297, 298, 299, 300],
      "AcquisitionTime": ["131610.910000", "131612.920000", "131614.927500", "131616.935000", "131618.942500", "131620.950000", "131622.960000", "131624.967500", "131626.975000", "131628.982500", "131630.990000", "131633.000000", "131635.007500", "131637.015000", "131639.022500", "131641.032500", "131643.040000", "131645.047500", "131647.055000", "131649.062500", "131651.072500", "131653.080000", "131655.087500", "131657.095000", "131659.102500", "131701.112500", "131703.120000", "131705.127500", "131707.135000", "131709.145000", "131711.152500", "131713.160000", "131715.167500", "131717.175000", "131719.185000", "131721.192500", "131723.200000", "131725.207500", "131727.215000", "131729.225000", "131731.232500", "131733.240000", "131735.247500", "131737.255000", "131739.265000", "131741.272500", "131743.280000", "131745.287500", "131747.297500", "131749.305000", "131751.312500", "131753.320000", "131755.327500", "131757.337500", "131759.345000", "131801.352500", "131803.360000", "131805.367500", "131807.377500", "131809.385000", "131811.392500", "131813.400000", "131815.410000", "131817.417500", "131819.425000", "131821.432500", "131823.440000", "131825.450000", "131827.457500", "131829.465000", "131831.472500", "131833.480000", "131835.490000", "131837.497500", "131839.505000", "131841.512500", "131843.522500", "131845.530000", "131847.537500", "131849.545000", "131851.552500", "131853.562500", "131855.570000", "131857.577500", "131859.585000", "131901.592500", "131903.602500", "131905.610000", "131907.617500", "131909.625000", "131911.632500", "131913.642500", "131915.650000", "131917.657500", "131919.665000", "131921.675000", "131923.682500", "131925.690000", "131927.697500", "131929.705000", "131931.715000", "131933.722500", "131935.730000", "131937.737500", "131939.745000", "131941.755000", "131943.762500", "131945.770000", "131947.777500", "131949.787500", "131951.795000", "131953.802500", "131955.810000", "131957.817500", "131959.827500", "132001.835000", "132003.842500", "132005.850000", "132007.857500", "132009.867500", "132011.875000", "132013.882500", "132015.890000", "132017.900000", "132019.907500", "132021.915000", "132023.922500", "132025.930000", "132027.940000", "132029.947500", "132031.955000", "132033.962500", "132035.970000", "132037.980000", "132039.987500", "132041.995000", "132044.002500", "132046.010000", "132048.020000", "132050.027500", "132052.035000", "132054.042500", "132056.052500", "132058.060000", "132100.067500", "132102.075000", "132104.082500", "132106.092500", "132108.100000", "132110.107500", "132112.115000", "132114.122500", "132116.132500", "132118.140000", "132120.147500", "132122.155000", "132124.165000", "132126.172500", "132128.180000", "132130.187500", "132132.195000", "132134.205000", "132136.212500", "132138.220000", "132140.227500", "132142.235000", "132144.245000", "132146.252500", "132148.260000", "132150.267500", "132152.277500", "132154.285000", "132156.292500", "132158.300000", "132200.307500", "132202.317500", "132204.325000", "132206.332500", "132208.340000", "132210.347500", "132212.357500", "132214.365000", "132216.372500", "132218.380000", "132220.390000", "132222.397500", "132224.405000", "132226.412500", "132228.420000", "132230.430000", "132232.437500", "132234.445000", "132236.452500", "132238.460000", "132240.470000", "132242.477500", "132244.485000", "132246.492500", "132248.500000", "132250.510000", "132252.517500", "132254.525000", "132256.532500", "132258.542500", "132300.550000", "132302.557500", "132304.565000", "132306.572500", "132308.582500", "132310.590000", "132312.597500", "132314.605000", "132316.612500", "132318.622500", "132320.630000", "132322.637500", "132324.645000", "132326.655000", "132328.662500", "132330.670000", "132332.677500", "132334.685000", "132336.695000", "132338.702500", "132340.710000", "132342.717500", "132344.725000", "132346.735000", "132348.742500", "132350.750000", "132352.757500", "132354.767500", "132356.775000", "132358.782500", "132400.790000", "132402.797500", "132404.807500", "132406.815000", "132408.822500", "132410.830000", "132412.837500", "132414.847500", "132416.855000", "132418.862500", "132420.870000", "132422.877500", "132424.887500", "132426.895000", "132428.902500", "132430.910000", "132432.920000", "132434.927500", "132436.935000", "132438.942500", "132440.950000", "132442.960000", "132444.967500", "132446.975000", "132448.982500", "132450.990000", "132453.000000", "132455.007500", "132457.015000", "132459.022500", "132501.032500", "132503.040000", "132505.047500", "132507.055000", "132509.062500", "132511.072500", "132513.080000", "132515.087500", "132517.095000", "132519.102500", "132521.112500", "132523.120000", "132525.127500", "132527.135000", "132529.145000", "132531.152500", "132533.160000", "132535.167500", "132537.175000", "132539.185000", "132541.192500", "132543.200000", "132545.207500", "132547.215000", "132549.225000", "132551.232500", "132553.240000", "132555.247500", "132557.255000", "132559.265000", "132601.272500", "132603.280000", "132605.287500", "132607.297500", "132609.305000", "132611.312500"],
      "ContentTime": ["131651.107000", "131651.110000", "131651.112000", "131651.115000", "131651.117000", "131651.117000", "131651.120000", "131651.122000", "131651.125000", "131651.125000", "131651.127000", "131651.130000", "131651.132000", "131651.132000", "131651.135000", "131651.142000", "131651.145000", "131651.145000", "131651.147000", "131651.150000", "131731.100000", "131731.103000", "131731.105000", "131731.108000", "131731.110000", "131731.110000", "131731.113000", "131731.115000", "131731.118000", "131731.118000", "131731.120000", "131731.123000", "131731.125000", "131731.128000", "131731.128000", "131731.130000", "131731.133000", "131731.135000", "131731.135000", "131731.145000", "131811.101000", "131811.104000", "131811.106000", "131811.109000", "131811.111000", "131811.111000", "131811.114000", "131811.126000", "131811.129000", "131811.129000", "131811.131000", "131811.134000", "131811.136000", "131811.136000", "131811.139000", "131811.141000", "131811.144000", "131811.144000", "131811.146000", "131811.149000", "131851.102000", "131851.104000", "131851.107000", "131851.109000", "131851.112000", "131851.112000", "131851.114000", "131851.117000", "131851.119000", "131851.119000", "131851.122000", "131851.124000", "131851.127000", "131851.127000", "131851.129000", "131851.132000", "131851.134000", "131851.134000", "131851.137000", "131851.139000", "131931.102000", "131931.105000", "131931.107000", "131931.110000", "131931.112000", "131931.112000", "131931.115000", "131931.117000", "131931.120000", "131931.120000", "131931.122000", "131931.125000", "131931.127000", "131931.127000", "131931.130000", "131931.132000", "131931.135000", "131931.137000", "131931.137000", "131931.140000", "132011.100000", "132011.103000", "132011.105000", "132011.108000", "132011.110000", "132011.110000", "132011.113000", "132011.115000", "132011.118000", "132011.118000", "132011.120000", "132011.123000", "132011.125000", "132011.125000", "132011.128000", "132011.130000", "132011.133000", "132011.135000", "132011.135000", "132011.138000", "132051.101000", "132051.103000", "132051.106000", "132051.113000", "132051.116000", "132051.118000", "132051.118000", "132051.121000", "132051.123000", "132051.126000", "132051.126000", "132051.128000", "132051.131000", "132051.133000", "132051.133000", "132051.136000", "132051.138000", "132051.141000", "132051.143000", "132051.143000", "132131.102000", "132131.104000", "132131.107000", "132131.109000", "132131.112000", "132131.112000", "132131.114000", "132131.117000", "132131.119000", "132131.119000", "132131.122000", "132131.124000", "132131.127000", "132131.129000", "132131.129000", "132131.132000", "132131.134000", "132131.137000", "132131.137000", "132131.139000", "132211.102000", "132211.105000", "132211.107000", "132211.110000", "132211.112000", "132211.112000", "132211.115000", "132211.117000", "132211.120000", "132211.120000", "132211.122000", "132211.125000", "132211.127000", "132211.130000", "132211.130000", "132211.132000", "132211.135000", "132211.137000", "132211.137000", "132211.140000", "132251.100000", "132251.103000", "132251.105000", "132251.108000", "132251.110000", "132251.110000", "132251.113000", "132251.115000", "132251.118000", "132251.118000", "132251.120000", "132251.123000", "132251.125000", "132251.128000", "132251.128000", "132251.130000", "132251.133000", "132251.135000", "132251.135000", "132251.138000", "132331.101000", "132331.103000", "132331.106000", "132331.108000", "132331.111000", "132331.111000", "132331.113000", "132331.116000", "132331.118000", "132331.121000", "132331.121000", "132331.123000", "132331.126000", "132331.128000", "132331.128000", "132331.131000", "132331.133000", "132331.136000", "132331.143000", "132331.143000", "132411.102000", "132411.104000", "132411.107000", "132411.109000", "132411.112000", "132411.114000", "132411.114000", "132411.117000", "132411.119000", "132411.122000", "132411.122000", "132411.124000", "132411.127000", "132411.129000", "132411.132000", "132411.132000", "132411.134000", "132411.137000", "132411.139000", "132411.139000", "132451.102000", "132451.105000", "132451.107000", "132451.110000", "132451.112000", "132451.112000", "132451.115000", "132451.117000", "132451.120000", "132451.122000", "132451.122000", "132451.125000", "132451.127000", "132451.130000", "132451.130000", "132451.132000", "132451.135000", "132451.137000", "132451.137000", "132451.140000", "132531.100000", "132531.103000", "132531.105000", "132531.108000", "132531.110000", "132531.110000", "132531.113000", "132531.115000", "132531.118000", "132531.118000", "132531.120000", "132531.123000", "132531.125000", "132531.128000", "132531.128000", "132531.130000", "132531.133000", "132531.135000", "132531.135000", "132531.138000", "132610.006000", "132610.008000", "132610.011000", "132610.011000", "132610.013000", "132610.016000", "132610.018000", "132610.021000", "132610.023000", "132610.023000", "132610.026000", "132610.028000", "132610.031000", "132610.033000", "132610.033000", "132610.036000", "132610.038000", "132610.041000", "132610.043000", "132610.046000"],
      "InstanceCreationTime": ["131651.107000", "131651.110000", "131651.112000", "131651.115000", "131651.117000", "131651.117000", "131651.120000", "131651.122000", "131651.125000", "131651.125000", "131651.127000", "131651.130000", "131651.132000", "131651.132000", "131651.135000", "131651.142000", "131651.145000", "131651.145000", "131651.147000", "131651.150000", "131731.100000", "131731.103000", "131731.105000", "131731.108000", "131731.110000", "131731.110000", "131731.113000", "131731.115000", "131731.118000", "131731.118000", "131731.120000", "131731.123000", "131731.125000", "131731.128000", "131731.128000", "131731.130000", "131731.133000", "131731.135000", "131731.135000", "131731.145000", "131811.101000", "131811.104000", "131811.106000", "131811.109000", "131811.111000", "131811.111000", "131811.114000", "131811.126000", "131811.129000", "131811.129000", "131811.131000", "131811.134000", "131811.136000", "131811.136000", "131811.139000", "131811.141000", "131811.144000", "131811.144000", "131811.146000", "131811.149000", "131851.102000", "131851.104000", "131851.107000", "131851.109000", "131851.112000", "131851.112000", "131851.114000", "131851.117000", "131851.119000", "131851.119000", "131851.122000", "131851.124000", "131851.127000", "131851.127000", "131851.129000", "131851.132000", "131851.134000", "131851.134000", "131851.137000", "131851.139000", "131931.102000", "131931.105000", "131931.107000", "131931.110000", "131931.112000", "131931.112000", "131931.115000", "131931.117000", "131931.120000", "131931.120000", "131931.122000", "131931.125000", "131931.127000", "131931.127000", "131931.130000", "131931.132000", "131931.135000", "131931.137000", "131931.137000", "131931.140000", "132011.100000", "132011.103000", "132011.105000", "132011.108000", "132011.110000", "132011.110000", "132011.113000", "132011.115000", "132011.118000", "132011.118000", "132011.120000", "132011.123000", "132011.125000", "132011.125000", "132011.128000", "132011.130000", "132011.133000", "132011.135000", "132011.135000", "132011.138000", "132051.101000", "132051.103000", "132051.106000", "132051.113000", "132051.116000", "132051.118000", "132051.118000", "132051.121000", "132051.123000", "132051.126000", "132051.126000", "132051.128000", "132051.131000", "132051.133000", "132051.133000", "132051.136000", "132051.138000", "132051.141000", "132051.143000", "132051.143000", "132131.102000", "132131.104000", "132131.107000", "132131.109000", "132131.112000", "132131.112000", "132131.114000", "132131.117000", "132131.119000", "132131.119000", "132131.122000", "132131.124000", "132131.127000", "132131.129000", "132131.129000", "132131.132000", "132131.134000", "132131.137000", "132131.137000", "132131.139000", "132211.102000", "132211.105000", "132211.107000", "132211.110000", "132211.112000", "132211.112000", "132211.115000", "132211.117000", "132211.120000", "132211.120000", "132211.122000", "132211.125000", "132211.127000", "132211.130000", "132211.130000", "132211.132000", "132211.135000", "132211.137000", "132211.137000", "132211.140000", "132251.100000", "132251.103000", "132251.105000", "132251.108000", "132251.110000", "132251.110000", "132251.113000", "132251.115000", "132251.118000", "132251.118000", "132251.120000", "132251.123000", "132251.125000", "132251.128000", "132251.128000", "132251.130000", "132251.133000", "132251.135000", "132251.135000", "132251.138000", "132331.101000", "132331.103000", "132331.106000", "132331.108000", "132331.111000", "132331.111000", "132331.113000", "132331.116000", "132331.118000", "132331.121000", "132331.121000", "132331.123000", "132331.126000", "132331.128000", "132331.128000", "132331.131000", "132331.133000", "132331.136000", "132331.143000", "132331.143000", "132411.102000", "132411.104000", "132411.107000", "132411.109000", "132411.112000", "132411.114000", "132411.114000", "132411.117000", "132411.119000", "132411.122000", "132411.122000", "132411.124000", "132411.127000", "132411.129000", "132411.132000", "132411.132000", "132411.134000", "132411.137000", "132411.139000", "132411.139000", "132451.102000", "132451.105000", "132451.107000", "132451.110000", "132451.112000", "132451.112000", "132451.115000", "132451.117000", "132451.120000", "132451.122000", "132451.122000", "132451.125000", "132451.127000", "132451.130000", "132451.130000", "132451.132000", "132451.135000", "132451.137000", "132451.137000", "132451.140000", "132531.100000", "132531.103000", "132531.105000", "132531.108000", "132531.110000", "132531.110000", "132531.113000", "132531.115000", "132531.118000", "132531.118000", "132531.120000", "132531.123000", "132531.125000", "132531.128000", "132531.128000", "132531.130000", "132531.133000", "132531.135000", "132531.135000", "132531.138000", "132610.006000", "132610.008000", "132610.011000", "132610.011000", "132610.013000", "132610.016000", "132610.018000", "132610.021000", "132610.023000", "132610.023000", "132610.026000", "132610.028000", "132610.031000", "132610.033000", "132610.033000", "132610.036000", "132610.038000", "132610.041000", "132610.043000", "132610.046000"],
      "InstanceNumber": [1, 2, 3, 4, 5, 6, 7, 8, 9, 10, 11, 12, 13, 14, 15, 16, 17, 18, 19, 20, 21, 22, 23, 24, 25, 26, 27, 28, 29, 30, 31, 32, 33, 34, 35, 36, 37, 38, 39, 40, 41, 42, 43, 44, 45, 46, 47, 48, 49, 50, 51, 52, 53, 54, 55, 56, 57, 58, 59, 60, 61, 62, 63, 64, 65, 66, 67, 68, 69, 70, 71, 72, 73, 74, 75, 76, 77, 78, 79, 80, 81, 82, 83, 84, 85, 86, 87, 88, 89, 90, 91, 92, 93, 94, 95, 96, 97, 98, 99, 100, 101, 102, 103, 104, 105, 106, 107, 108, 109, 110, 111, 112, 113, 114, 115, 116, 117, 118, 119, 120, 121, 122, 123, 124, 125, 126, 127, 128, 129, 130, 131, 132, 133, 134, 135, 136, 137, 138, 139, 140, 141, 142, 143, 144, 145, 146, 147, 148, 149, 150, 151, 152, 153, 154, 155, 156, 157, 158, 159, 160, 161, 162, 163, 164, 165, 166, 167, 168, 169, 170, 171, 172, 173, 174, 175, 176, 177, 178, 179, 180, 181, 182, 183, 184, 185, 186, 187, 188, 189, 190, 191, 192, 193, 194, 195, 196, 197, 198, 199, 200, 201, 202, 203, 204, 205, 206, 207, 208, 209, 210, 211, 212, 213, 214, 215, 216, 217, 218, 219, 220, 221, 222, 223, 224, 225, 226, 227, 228, 229, 230, 231, 232, 233, 234, 235, 236, 237, 238, 239, 240, 241, 242, 243, 244, 245, 246, 247, 248, 249, 250, 251, 252, 253, 254, 255, 256, 257, 258, 259, 260, 261, 262, 263, 264, 265, 266, 267, 268, 269, 270, 271, 272, 273, 274, 275, 276, 277, 278, 279, 280, 281, 282, 283, 284, 285, 286, 287, 288, 289, 290, 291, 292, 293, 294, 295, 296, 297, 298, 299, 300],
      "LargestImagePixelValue": [1857, 1810, 1778, 1759, 1795, 1852, 1784, 1755, 1845, 1853, 1890, 1758, 1814, 1829, 1786, 1775, 1843, 1854, 1876, 1765, 1838, 1787, 1813, 1851, 1833, 1818, 1800, 1895, 1837, 1780, 1689, 1760, 1875, 1894, 1825, 1828, 1842, 1803, 1780, 1869, 1809, 1796, 1888, 1850, 1821, 1746, 1808, 1873, 1792, 1835, 1847, 1872, 1876, 1784, 1744, 1836, 1854, 1837, 1864, 1813, 1714, 1747, 1777, 1840, 1873, 1884, 1808, 1764, 1809, 1853, 1875, 1871, 1761, 1790, 1860, 1842, 1861, 1832, 1804, 1779, 1764, 1798, 1861, 1813, 1739, 1770, 1756, 1815, 1826, 1812, 1769, 1822, 1833, 1876, 1865, 1800, 1794, 1835, 1869, 1745, 1734, 1812, 1830, 1828, 1783, 1802, 1851, 1879, 1763, 1716, 1784, 1854, 1834, 1741, 1817, 2082, 1846, 1729, 1758, 1802, 1779, 1746, 1812, 1808, 1823, 1986, 2049, 1717, 1741, 1775, 1916, 2047, 1729, 1679, 1727, 1810, 2011, 1784, 1732, 1723, 1735, 1794, 1852, 1952, 1851, 1747, 1788, 1771, 1805, 1814, 1734, 1700, 1780, 1750, 1852, 1841, 1839, 1759, 1873, 1897, 1854, 1856, 1770, 1775, 1776, 1830, 1783, 1715, 1697, 1660, 1720, 1728, 1745, 1792, 1815, 1732, 1735, 1770, 1821, 1846, 1966, 1712, 1749, 1837, 1858, 1854, 1889, 1692, 1806, 1851, 1833, 1893, 1760, 1748, 1795, 1889, 2004, 1731, 1838, 1821, 1825, 1828, 2116, 1857, 1783, 1946, 1849, 1693, 1760, 1762, 1824, 1948, 2268, 1798, 1732, 1767, 1932, 1729, 1761, 2100, 1857, 1837, 1813, 2125, 1793, 1792, 1821, 1722, 1786, 1785, 2344, 1832, 1836, 1743, 1927, 1891, 2160, 1750, 1819, 1983, 2289, 1794, 1747, 1789, 2006, 2189, 2052, 1689, 1733, 1822, 1771, 1831, 2029, 2154, 1850, 1847, 1865, 1793, 1772, 1828, 1727, 1757, 1667, 1822, 1814, 1739, 2152, 2280, 1789, 1750, 1765, 1777, 1737, 1798, 1966, 2159, 1753, 2044, 2122, 1907, 1740, 1739, 1797, 1826, 2078, 2327, 1791, 1809, 1834, 1778, 1831, 1979, 1706, 1809, 2255, 1766, 1803, 1859, 1772, 1788],
      "WindowCenter": [659.0, 656.0, 654.0, 653.0, 652.0, 653.0, 652.0, 651.0, 652.0, 653.0, 654.0, 653.0, 653.0, 653.0, 652.0, 652.0, 653.0, 654.0, 654.0, 653.0, 654.0, 653.0, 653.0, 654.0, 655.0, 657.0, 658.0, 657.0, 655.0, 655.0, 653.0, 654.0, 654.0, 655.0, 656.0, 657.0, 657.0, 657.0, 657.0, 655.0, 653.0, 653.0, 654.0, 657.0, 657.0, 655.0, 655.0, 655.0, 653.0, 652.0, 652.0, 653.0, 653.0, 656.0, 656.0, 658.0, 657.0, 655.0, 655.0, 656.0, 654.0, 654.0, 655.0, 656.0, 655.0, 655.0, 653.0, 652.0, 653.0, 655.0, 657.0, 656.0, 656.0, 657.0, 656.0, 655.0, 654.0, 654.0, 655.0, 655.0, 655.0, 657.0, 657.0, 659.0, 658.0, 658.0, 660.0, 657.0, 656.0, 656.0, 657.0, 657.0, 658.0, 657.0, 658.0, 658.0, 655.0, 655.0, 659.0, 657.0, 657.0, 658.0, 658.0, 658.0, 657.0, 656.0, 654.0, 654.0, 658.0, 657.0, 656.0, 658.0, 659.0, 658.0, 658.0, 658.0, 658.0, 659.0, 659.0, 659.0, 659.0, 659.0, 659.0, 657.0, 657.0, 660.0, 661.0, 658.0, 658.0, 658.0, 659.0, 660.0, 658.0, 657.0, 656.0, 658.0, 660.0, 659.0, 657.0, 657.0, 659.0, 659.0, 660.0, 658.0, 658.0, 657.0, 656.0, 656.0, 657.0, 658.0, 657.0, 658.0, 660.0, 660.0, 660.0, 660.0, 659.0, 657.0, 659.0, 660.0, 660.0, 659.0, 659.0, 660.0, 661.0, 658.0, 659.0, 661.0, 660.0, 658.0, 658.0, 659.0, 659.0, 661.0, 662.0, 661.0, 660.0, 661.0, 661.0, 661.0, 662.0, 660.0, 662.0, 662.0, 662.0, 665.0, 664.0, 660.0, 660.0, 656.0, 660.0, 661.0, 660.0, 659.0, 660.0, 659.0, 659.0, 659.0, 661.0, 661.0, 660.0, 660.0, 661.0, 658.0, 656.0, 659.0, 660.0, 658.0, 658.0, 660.0, 662.0, 666.0, 665.0, 662.0, 659.0, 663.0, 662.0, 660.0, 659.0, 662.0, 661.0, 659.0, 659.0, 660.0, 660.0, 660.0, 661.0, 658.0, 659.0, 660.0, 662.0, 658.0, 659.0, 662.0, 664.0, 663.0, 662.0, 658.0, 658.0, 663.0, 665.0, 663.0, 661.0, 659.0, 661.0, 664.0, 663.0, 658.0, 658.0, 659.0, 659.0, 661.0, 662.0, 663.0, 661.0, 661.0, 661.0, 662.0, 662.0, 667.0, 668.0, 666.0, 663.0, 663.0, 662.0, 662.0, 663.0, 663.0, 659.0, 660.0, 661.0, 662.0, 662.0, 660.0, 661.0, 660.0, 663.0, 665.0, 665.0, 662.0, 660.0, 662.0, 663.0, 662.0, 663.0, 665.0, 661.0, 661.0, 661.0, 662.0, 664.0, 665.0, 660.0, 661.0, 666.0, 665.0, 665.0, 663.0, 664.0, 665.0],
      "WindowWidth": [1420.0, 1410.0, 1404.0, 1402.0, 1401.0, 1402.0, 1399.0, 1397.0, 1400.0, 1404.0, 1404.0, 1403.0, 1404.0, 1403.0, 1401.0, 1400.0, 1403.0, 1405.0, 1404.0, 1402.0, 1405.0, 1404.0, 1404.0, 1407.0, 1409.0, 1412.0, 1417.0, 1413.0, 1409.0, 1408.0, 1404.0, 1405.0, 1406.0, 1408.0, 1411.0, 1413.0, 1414.0, 1412.0, 1413.0, 1407.0, 1402.0, 1402.0, 1406.0, 1414.0, 1413.0, 1410.0, 1410.0, 1409.0, 1402.0, 1400.0, 1401.0, 1404.0, 1402.0, 1410.0, 1411.0, 1417.0, 1413.0, 1407.0, 1407.0, 1412.0, 1407.0, 1406.0, 1408.0, 1410.0, 1408.0, 1408.0, 1402.0, 1400.0, 1402.0, 1408.0, 1414.0, 1411.0, 1410.0, 1414.0, 1410.0, 1408.0, 1406.0, 1406.0, 1408.0, 1408.0, 1409.0, 1413.0, 1412.0, 1419.0, 1417.0, 1416.0, 1421.0, 1414.0, 1411.0, 1411.0, 1414.0, 1415.0, 1415.0, 1413.0, 1416.0, 1416.0, 1407.0, 1407.0, 1418.0, 1415.0, 1414.0, 1417.0, 1416.0, 1416.0, 1414.0, 1410.0, 1405.0, 1406.0, 1415.0, 1413.0, 1412.0, 1414.0, 1418.0, 1416.0, 1415.0, 1415.0, 1415.0, 1419.0, 1419.0, 1419.0, 1419.0, 1418.0, 1418.0, 1412.0, 1414.0, 1421.0, 1424.0, 1415.0, 1415.0, 1416.0, 1419.0, 1422.0, 1416.0, 1413.0, 1412.0, 1416.0, 1420.0, 1418.0, 1413.0, 1412.0, 1418.0, 1418.0, 1421.0, 1416.0, 1415.0, 1413.0, 1411.0, 1410.0, 1413.0, 1415.0, 1414.0, 1416.0, 1422.0, 1421.0, 1421.0, 1422.0, 1418.0, 1414.0, 1419.0, 1420.0, 1421.0, 1419.0, 1419.0, 1420.0, 1423.0, 1415.0, 1419.0, 1423.0, 1420.0, 1417.0, 1417.0, 1419.0, 1419.0, 1423.0, 1426.0, 1424.0, 1421.0, 1424.0, 1425.0, 1425.0, 1425.0, 1422.0, 1426.0, 1426.0, 1427.0, 1435.0, 1431.0, 1422.0, 1422.0, 1411.0, 1420.0, 1424.0, 1421.0, 1417.0, 1422.0, 1418.0, 1418.0, 1419.0, 1424.0, 1423.0, 1421.0, 1420.0, 1423.0, 1416.0, 1410.0, 1419.0, 1421.0, 1416.0, 1415.0, 1422.0, 1427.0, 1437.0, 1434.0, 1427.0, 1418.0, 1428.0, 1427.0, 1421.0, 1419.0, 1427.0, 1423.0, 1418.0, 1417.0, 1420.0, 1421.0, 1421.0, 1425.0, 1415.0, 1420.0, 1422.0, 1427.0, 1415.0, 1418.0, 1427.0, 1432.0, 1428.0, 1427.0, 1416.0, 1415.0, 1430.0, 1434.0, 1429.0, 1424.0, 1418.0, 1423.0, 1432.0, 1428.0, 1415.0, 1417.0, 1419.0, 1420.0, 1425.0, 1426.0, 1428.0, 1424.0, 1423.0, 1425.0, 1426.0, 1427.0, 1439.0, 1443.0, 1437.0, 1429.0, 1430.0, 1426.0, 1425.0, 1430.0, 1429.0, 1418.0, 1420.0, 1423.0, 1427.0, 1427.0, 1421.0, 1422.0, 1422.0, 1428.0, 1434.0, 1433.0, 1426.0, 1420.0, 1426.0, 1428.0, 1425.0, 1430.0, 1435.0, 1424.0, 1424.0, 1425.0, 1425.0, 1431.0, 1432.0, 1422.0, 1425.0, 1437.0, 1435.0, 1435.0, 1428.0, 1431.0, 1434.0]
    },
    "slices": {}
  }
}