{
  "AcquisitionMatrixPE": 74,
  "AcquisitionNumber": 1,
  "AcquisitionTime": "09:40:16.077500",
  "BandwidthPerPixelPhaseEncode": 27.579,
  "BaseResolution": 74,
  "BodyPartExamined": "HEAD",
  "CoilString": "t:HEA;HEP",
  "ConversionSoftware": "dcm2niix",
  "ConversionSoftwareVersion": "v1.0.20190410  GCC6.3.0",
  "DerivedVendorReportedEchoSpacing": 0.000489993,
  "DeviceSerialNumber": "35256",
  "DwellTime": 2.4e-06,
  "EchoTime": 0.03,
  "EffectiveEchoSpacing": 0.000489993,
  "FlipAngle": 70,
  "ImageOrientationPatientDICOM": [1, 0, 0, 0, 1, 0],
  "ImageType": [
    "ORIGINAL",
    "PRIMARY",
    "M",
    "ND",
    "NORM",
    "MOSAIC"
],
  "ImagingFrequency": 123.223,
  "InPlanePhaseEncodingDirectionDICOM": "COL",
  "InstitutionAddress": "East_Lee_St._2907_Greensboro_NC_US_27401",
  "InstitutionName": "JSNN",
  "InstitutionalDepartmentName": "Department",
  "MRAcquisitionType": "2D",
  "MagneticFieldStrength": 3,
  "Manufacturer": "Siemens",
  "ManufacturersModelName": "TrioTim",
  "Modality": "MR",
  "PartialFourier": 1,
  "PatientPosition": "HFS",
  "PercentPhaseFOV": 100,
  "PhaseEncodingDirection": "j-",
  "PhaseEncodingSteps": 74,
  "PhaseResolution": 1,
  "PixelBandwidth": 2815,
  "ProcedureStepDescription": "head_Cassidy",
  "ProtocolName": "RestingState",
  "PulseSequenceDetails": "%SiemensSeq%_ep2d_bold",
  "ReceiveCoilName": "HeadMatrix",
  "ReconMatrixPE": 74,
  "RepetitionTime": 2,
  "SAR": 0.0871317,
  "ScanOptions": "FS",
  "ScanningSequence": "EP",
  "SequenceName": "_epfid2d1_74",
  "SequenceVariant": "SK",
  "SeriesDescription": "RestingState",
  "SeriesNumber": 3,
  "ShimSetting": [1379, 10622, -8731, 548, 75, -348, 523, -29],
  "SliceThickness": 4,
  "SliceTiming": [1.945, 1.88, 1.8175, 1.755, 1.6925, 1.63, 1.5675, 1.505, 1.4425, 1.38, 1.3175, 1.255, 1.19, 1.1275, 1.065, 1.0025, 0.94, 0.8775, 0.815, 0.7525, 0.69, 0.6275, 0.565, 0.5, 0.4375, 0.375, 0.3125, 0.25, 0.1875, 0.125, 0.0625, 0],
  "SoftwareVersions": "syngo_MR_B19",
  "SpacingBetweenSlices": 4,
  "StationName": "JSNNMRI",
  "TaskName": "rest",
  "TotalReadoutTime": 0.0357695,
  "TxRefAmp": 278.938,
  "dcmmeta_affine": [
    [-2.972972869873047, 0.0, 0.0, 105.18071746826172],
    [0.0, 2.972972869873047, 0.0, -97.57642364501953],
    [0.0, 0.0, 4.0, -64.41445922851562],
    [0.0, 0.0, 0.0, 1.0]
],
  "dcmmeta_reorient_transform": [
    [0.0, -1.0, 0.0, 73.0],
    [1.0, 0.0, 0.0, 0.0],
    [0.0, 0.0, 1.0, 0.0],
    [0.0, 0.0, 0.0, 1.0]
],
  "dcmmeta_shape": [74, 74, 32, 300],
  "dcmmeta_slice_dim": 2,
  "dcmmeta_version": 0.6,
  "global": {
    "const": {
      "AcquisitionMatrix": [74, 0, 0, 74],
      "AngioFlag": "N",
      "BitsAllocated": 16,
      "BitsStored": 12,
      "BodyPartExamined": "HEAD",
      "Columns": 444,
      "EchoNumbers": 1,
      "EchoTime": 30.0,
      "EchoTrainLength": 1,
      "FlipAngle": 70.0,
      "HighBit": 11,
      "ImageOrientationPatient": [1.0, 0.0, 0.0, 0.0, 1.0, 0.0],
      "ImagePositionPatient": [-655.18069982529, -669.45057964325, -64.414459228516],
      "ImageType": [
        "ORIGINAL",
        "PRIMARY",
        "M",
        "ND",
        "NORM",
        "MOSAIC"
],
      "ImagedNucleus": "1H",
      "ImagingFrequency": 123.223121,
      "InPlanePhaseEncodingDirection": "COL",
      "MRAcquisitionType": "2D",
      "MagneticFieldStrength": 3.0,
      "Manufacturer": "SIEMENS",
      "ManufacturerModelName": "TrioTim",
      "Modality": "MR",
      "NumberOfAverages": 1.0,
      "NumberOfPhaseEncodingSteps": 74,
      "PercentPhaseFieldOfView": 100.0,
      "PercentSampling": 100.0,
      "PerformedProcedureStepStartTime": "090558.227000",
      "PhotometricInterpretation": "MONOCHROME2",
      "PixelBandwidth": 2815.0,
      "PixelRepresentation": 0,
      "PixelSpacing": [2.972972869873, 2.972972869873],
      "ProtocolName": "RestingState",
      "RepetitionTime": 2000.0,
      "Rows": 444,
      "SAR": 0.08713171262111,
      "SamplesPerPixel": 1,
      "ScanOptions": "FS",
      "ScanningSequence": "EP",
      "SequenceName": "*epfid2d1_74",
      "SequenceVariant": "SK",
      "SeriesDescription": "RestingState",
      "SeriesNumber": 3,
      "SeriesTime": "094105.854000",
      "SliceLocation": -64.414459228516,
      "SliceThickness": 4.0,
      "SmallestImagePixelValue": 0,
      "SoftwareVersions": "syngo MR B19",
      "SpacingBetweenSlices": 4.0,
      "SpecificCharacterSet": "ISO_IR 100",
      "StudyID": "1",
      "StudyTime": "090558.162000",
      "TransmitCoilName": "Body",
      "VariableFlipAngleFlag": "N",
      "WindowCenterWidthExplanation": "Algo1",
      "dBdt": 0.0},
    "slices": {}
  },
  "time": {
    "samples": {
      "AcquisitionNumber": [1, 2, 3, 4, 5, 6, 7, 8, 9, 10, 11, 12, 13, 14, 15, 16, 17, 18, 19, 20, 21, 22, 23, 24, 25, 26, 27, 28, 29, 30, 31, 32, 33, 34, 35, 36, 37, 38, 39, 40, 41, 42, 43, 44, 45, 46, 47, 48, 49, 50, 51, 52, 53, 54, 55, 56, 57, 58, 59, 60, 61, 62, 63, 64, 65, 66, 67, 68, 69, 70, 71, 72, 73, 74, 75, 76, 77, 78, 79, 80, 81, 82, 83, 84, 85, 86, 87, 88, 89, 90, 91, 92, 93, 94, 95, 96, 97, 98, 99, 100, 101, 102, 103, 104, 105, 106, 107, 108, 109, 110, 111, 112, 113, 114, 115, 116, 117, 118, 119, 120, 121, 122, 123, 124, 125, 126, 127, 128, 129, 130, 131, 132, 133, 134, 135, 136, 137, 138, 139, 140, 141, 142, 143, 144, 145, 146, 147, 148, 149, 150, 151, 152, 153, 154, 155, 156, 157, 158, 159, 160, 161, 162, 163, 164, 165, 166, 167, 168, 169, 170, 171, 172, 173, 174, 175, 176, 177, 178, 179, 180, 181, 182, 183, 184, 185, 186, 187, 188, 189, 190, 191, 192, 193, 194, 195, 196, 197, 198, 199, 200, 201, 202, 203, 204, 205, 206, 207, 208, 209, 210, 211, 212, 213, 214, 215, 216, 217, 218, 219, 220, 221, 222, 223, 224, 225, 226, 227, 228, 229, 230, 231, 232, 233, 234, 235, 236, 237, 238, 239, 240, 241, 242, 243, 244, 245, 246, 247, 248, 249, 250, 251, 252, 253, 254, 255, 256, 257, 258, 259, 260, 261, 262, 263, 264, 265, 266, 267, 268, 269, 270, 271, 272, 273, 274, 275, 276, 277, 278, 279, 280, 281, 282, 283, 284, 285, 286, 287, 288, 289, 290, 291, 292, 293, 294, 295, 296, 297, 298, 299, 300],
      "AcquisitionTime": ["094016.077500", "094018.085000", "094020.092500", "094022.100000", "094024.107500", "094026.117500", "094028.125000", "094030.132500", "094032.140000", "094034.147500", "094036.157500", "094038.165000", "094040.172500", "094042.180000", "094044.190000", "094046.197500", "094048.205000", "094050.212500", "094052.220000", "094054.230000", "094056.237500", "094058.245000", "094100.252500", "094102.260000", "094104.270000", "094106.277500", "094108.285000", "094110.292500", "094112.302500", "094114.310000", "094116.317500", "094118.325000", "094120.332500", "094122.342500", "094124.350000", "094126.357500", "094128.365000", "094130.372500", "094132.382500", "094134.390000", "094136.397500", "094138.405000", "094140.415000", "094142.422500", "094144.430000", "094146.437500", "094148.445000", "094150.455000", "094152.462500", "094154.470000", "094156.477500", "094158.485000", "094200.495000", "094202.502500", "094204.510000", "094206.517500", "094208.525000", "094210.535000", "094212.542500", "094214.550000", "094216.557500", "094218.567500", "094220.575000", "094222.582500", "094224.590000", "094226.597500", "094228.607500", "094230.615000", "094232.622500", "094234.630000", "094236.637500", "094238.647500", "094240.655000", "094242.662500", "094244.670000", "094246.680000", "094248.687500", "094250.695000", "094252.702500", "094254.710000", "094256.720000", "094258.727500", "094300.735000", "094302.742500", "094304.750000", "094306.760000", "094308.767500", "094310.775000", "094312.782500", "094314.792500", "094316.800000", "094318.807500", "094320.815000", "094322.822500", "094324.832500", "094326.840000", "094328.847500", "094330.855000", "094332.862500", "094334.872500", "094336.880000", "094338.887500", "094340.895000", "094342.905000", "094344.912500", "094346.920000", "094348.927500", "094350.935000", "094352.945000", "094354.952500", "094356.960000", "094358.967500", "094400.975000", "094402.985000", "094404.992500", "094407.000000", "094409.007500", "094411.015000", "094413.025000", "094415.032500", "094417.040000", "094419.047500", "094421.057500", "094423.065000", "094425.072500", "094427.080000", "094429.087500", "094431.097500", "094433.105000", "094435.112500", "094437.120000", "094439.127500", "094441.137500", "094443.145000", "094445.152500", "094447.160000", "094449.170000", "094451.177500", "094453.185000", "094455.192500", "094457.200000", "094459.210000", "094501.217500", "094503.225000", "094505.232500", "094507.240000", "094509.250000", "094511.257500", "094513.265000", "094515.272500", "094517.282500", "094519.290000", "094521.297500", "094523.305000", "094525.312500", "094527.322500", "094529.330000", "094531.337500", "094533.345000", "094535.352500", "094537.362500", "094539.370000", "094541.377500", "094543.385000", "094545.392500", "094547.402500", "094549.410000", "094551.417500", "094553.425000", "094555.435000", "094557.442500", "094559.450000", "094601.457500", "094603.465000", "094605.475000", "094607.482500", "094609.490000", "094611.497500", "094613.505000", "094615.515000", "094617.522500", "094619.530000", "094621.537500", "094623.547500", "094625.555000", "094627.562500", "094629.570000", "094631.577500", "094633.587500", "094635.595000", "094637.602500", "094639.610000", "094641.617500", "094643.627500", "094645.635000", "094647.642500", "094649.650000", "094651.660000", "094653.667500", "094655.675000", "094657.682500", "094659.690000", "094701.700000", "094703.707500", "094705.715000", "094707.722500", "094709.730000", "094711.740000", "094713.747500", "094715.755000", "094717.762500", "094719.770000", "094721.780000", "094723.787500", "094725.795000", "094727.802500", "094729.812500", "094731.820000", "094733.827500", "094735.835000", "094737.842500", "094739.852500", "094741.860000", "094743.867500", "094745.875000", "094747.882500", "094749.892500", "094751.900000", "094753.907500", "094755.915000", "094757.925000", "094759.932500", "094801.940000", "094803.947500", "094805.955000", "094807.965000", "094809.972500", "094811.980000", "094813.987500", "094815.995000", "094818.005000", "094820.012500", "094822.020000", "094824.027500", "094826.037500", "094828.045000", "094830.052500", "094832.060000", "094834.067500", "094836.077500", "094838.085000", "094840.092500", "094842.100000", "094844.107500", "094846.117500", "094848.125000", "094850.132500", "094852.140000", "094854.147500", "094856.157500", "094858.165000", "094900.172500", "094902.180000", "094904.190000", "094906.197500", "094908.205000", "094910.212500", "094912.220000", "094914.230000", "094916.237500", "094918.245000", "094920.252500", "094922.260000", "094924.270000", "094926.277500", "094928.285000", "094930.292500", "094932.302500", "094934.310000", "094936.317500", "094938.325000", "094940.332500", "094942.342500", "094944.350000", "094946.357500", "094948.365000", "094950.372500", "094952.382500", "094954.390000", "094956.397500", "094958.405000", "095000.415000", "095002.422500", "095004.430000", "095006.437500", "095008.445000", "095010.455000", "095012.462500", "095014.470000", "095016.477500"],
      "ContentTime": ["094105.857000", "094105.859000", "094105.862000", "094105.869000", "094105.872000", "094105.877000", "094105.877000", "094105.879000", "094105.882000", "094105.884000", "094105.884000", "094105.887000", "094105.889000", "094105.892000", "094105.892000", "094105.899000", "094105.902000", "094105.904000", "094105.904000", "094105.907000", "094105.909000", "094105.912000", "094105.912000", "094105.914000", "094105.917000", "094145.852000", "094145.855000", "094145.857000", "094145.860000", "094145.862000", "094145.862000", "094145.865000", "094145.867000", "094145.870000", "094145.872000", "094145.890000", "094145.890000", "094145.892000", "094145.895000", "094145.897000", "094145.897000", "094145.900000", "094145.903000", "094145.905000", "094145.905000", "094225.853000", "094225.856000", "094225.858000", "094225.861000", "094225.861000", "094225.863000", "094225.866000", "094225.868000", "094225.871000", "094225.871000", "094225.873000", "094225.876000", "094225.878000", "094225.878000", "094225.881000", "094225.883000", "094225.886000", "094225.886000", "094225.888000", "094225.891000", "094305.854000", "094305.856000", "094305.859000", "094305.861000", "094305.864000", "094305.864000", "094305.866000", "094305.869000", "094305.871000", "094305.871000", "094305.874000", "094305.876000", "094305.879000", "094305.879000", "094305.881000", "094305.884000", "094305.886000", "094305.886000", "094305.889000", "094305.891000", "094345.852000", "094345.854000", "094345.857000", "094345.859000", "094345.862000", "094345.862000", "094345.864000", "094345.867000", "094345.869000", "094345.869000", "094345.872000", "094345.874000", "094345.877000", "094345.877000", "094345.879000", "094345.882000", "094345.884000", "094345.884000", "094345.887000", "094345.889000", "094425.852000", "094425.855000", "094425.857000", "094425.860000", "094425.860000", "094425.867000", "094425.870000", "094425.872000", "094425.872000", "094425.875000", "094425.877000", "094425.880000", "094425.880000", "094425.882000", "094425.885000", "094425.887000", "094425.887000", "094425.890000", "094425.892000", "094425.895000", "094505.853000", "094505.861000", "094505.863000", "094505.866000", "094505.868000", "094505.868000", "094505.871000", "094505.873000", "094505.876000", "094505.876000", "094505.878000", "094505.881000", "094505.883000", "094505.883000", "094505.886000", "094505.888000", "094505.891000", "094505.891000", "094505.893000", "094505.896000", "094525.853000", "094525.856000", "094525.858000", "094525.861000", "094525.863000", "094525.863000", "094525.866000", "094525.868000", "094525.871000", "094525.871000", "094605.854000", "094605.881000", "094605.884000", "094605.886000", "094605.889000", "094605.889000", "094605.891000", "094605.894000", "094605.896000", "094605.896000", "094605.899000", "094605.901000", "094605.904000", "094605.904000", "094605.906000", "094605.909000", "094605.911000", "094605.911000", "094605.919000", "094605.921000", "094645.852000", "094645.855000", "094645.857000", "094645.860000", "094645.862000", "094645.862000", "094645.865000", "094645.867000", "094645.870000", "094645.870000", "094645.872000", "094645.875000", "094645.877000", "094645.877000", "094645.880000", "094645.882000", "094645.885000", "094645.885000", "094645.887000", "094645.890000", "094725.855000", "094725.855000", "094725.858000", "094725.860000", "094725.863000", "094725.863000", "094725.865000", "094725.868000", "094725.870000", "094725.870000", "094725.873000", "094725.875000", "094725.878000", "094725.878000", "094725.880000", "094725.883000", "094725.885000", "094725.885000", "094725.888000", "094725.890000", "094805.853000", "094805.856000", "094805.858000", "094805.861000", "094805.863000", "094805.863000", "094805.866000", "094805.868000", "094805.871000", "094805.871000", "094805.873000", "094805.876000", "094805.878000", "094805.878000", "094805.881000", "094805.883000", "094805.886000", "094805.886000", "094805.888000", "094805.891000", "094845.854000", "094845.896000", "094845.896000", "094845.899000", "094845.901000", "094845.904000", "094845.906000", "094845.906000", "094845.909000", "094845.911000", "094845.914000", "094845.914000", "094845.916000", "094845.919000", "094845.921000", "094845.921000", "094845.924000", "094845.926000", "094845.929000", "094845.929000", "094925.852000", "094925.855000", "094925.857000", "094925.860000", "094925.862000", "094925.862000", "094925.865000", "094925.867000", "094925.870000", "094925.870000", "094925.872000", "094925.875000", "094925.877000", "094925.877000", "094925.880000", "094925.882000", "094925.885000", "094925.885000", "094925.887000", "094925.890000", "095005.853000", "095005.855000", "095005.858000", "095005.860000", "095005.863000", "095005.863000", "095005.865000", "095005.868000", "095005.870000", "095005.870000", "095005.873000", "095005.875000", "095005.878000", "095005.878000", "095005.880000", "095005.883000", "095005.885000", "095005.885000", "095005.888000", "095005.890000", "095015.033000", "095015.035000", "095015.038000", "095015.038000", "095015.040000"],
      "InstanceCreationTime": ["094105.857000", "094105.859000", "094105.862000", "094105.869000", "094105.872000", "094105.877000", "094105.877000", "094105.879000", "094105.882000", "094105.884000", "094105.884000", "094105.887000", "094105.889000", "094105.892000", "094105.892000", "094105.899000", "094105.902000", "094105.904000", "094105.904000", "094105.907000", "094105.909000", "094105.912000", "094105.912000", "094105.914000", "094105.917000", "094145.852000", "094145.855000", "094145.857000", "094145.860000", "094145.862000", "094145.862000", "094145.865000", "094145.867000", "094145.870000", "094145.872000", "094145.890000", "094145.890000", "094145.892000", "094145.895000", "094145.897000", "094145.897000", "094145.900000", "094145.903000", "094145.905000", "094145.905000", "094225.853000", "094225.856000", "094225.858000", "094225.861000", "094225.861000", "094225.863000", "094225.866000", "094225.868000", "094225.871000", "094225.871000", "094225.873000", "094225.876000", "094225.878000", "094225.878000", "094225.881000", "094225.883000", "094225.886000", "094225.886000", "094225.888000", "094225.891000", "094305.854000", "094305.856000", "094305.859000", "094305.861000", "094305.864000", "094305.864000", "094305.866000", "094305.869000", "094305.871000", "094305.871000", "094305.874000", "094305.876000", "094305.879000", "094305.879000", "094305.881000", "094305.884000", "094305.886000", "094305.886000", "094305.889000", "094305.891000", "094345.852000", "094345.854000", "094345.857000", "094345.859000", "094345.862000", "094345.862000", "094345.864000", "094345.867000", "094345.869000", "094345.869000", "094345.872000", "094345.874000", "094345.877000", "094345.877000", "094345.879000", "094345.882000", "094345.884000", "094345.884000", "094345.887000", "094345.889000", "094425.852000", "094425.855000", "094425.857000", "094425.860000", "094425.860000", "094425.867000", "094425.870000", "094425.872000", "094425.872000", "094425.875000", "094425.877000", "094425.880000", "094425.880000", "094425.882000", "094425.885000", "094425.887000", "094425.887000", "094425.890000", "094425.892000", "094425.895000", "094505.853000", "094505.861000", "094505.863000", "094505.866000", "094505.868000", "094505.868000", "094505.871000", "094505.873000", "094505.876000", "094505.876000", "094505.878000", "094505.881000", "094505.883000", "094505.883000", "094505.886000", "094505.888000", "094505.891000", "094505.891000", "094505.893000", "094505.896000", "094525.853000", "094525.856000", "094525.858000", "094525.861000", "094525.863000", "094525.863000", "094525.866000", "094525.868000", "094525.871000", "094525.871000", "094605.854000", "094605.881000", "094605.884000", "094605.886000", "094605.889000", "094605.889000", "094605.891000", "094605.894000", "094605.896000", "094605.896000", "094605.899000", "094605.901000", "094605.904000", "094605.904000", "094605.906000", "094605.909000", "094605.911000", "094605.911000", "094605.919000", "094605.921000", "094645.852000", "094645.855000", "094645.857000", "094645.860000", "094645.862000", "094645.862000", "094645.865000", "094645.867000", "094645.870000", "094645.870000", "094645.872000", "094645.875000", "094645.877000", "094645.877000", "094645.880000", "094645.882000", "094645.885000", "094645.885000", "094645.887000", "094645.890000", "094725.855000", "094725.855000", "094725.858000", "094725.860000", "094725.863000", "094725.863000", "094725.865000", "094725.868000", "094725.870000", "094725.870000", "094725.873000", "094725.875000", "094725.878000", "094725.878000", "094725.880000", "094725.883000", "094725.885000", "094725.885000", "094725.888000", "094725.890000", "094805.853000", "094805.856000", "094805.858000", "094805.861000", "094805.863000", "094805.863000", "094805.866000", "094805.868000", "094805.871000", "094805.871000", "094805.873000", "094805.876000", "094805.878000", "094805.878000", "094805.881000", "094805.883000", "094805.886000", "094805.886000", "094805.888000", "094805.891000", "094845.854000", "094845.896000", "094845.896000", "094845.899000", "094845.901000", "094845.904000", "094845.906000", "094845.906000", "094845.909000", "094845.911000", "094845.914000", "094845.914000", "094845.916000", "094845.919000", "094845.921000", "094845.921000", "094845.924000", "094845.926000", "094845.929000", "094845.929000", "094925.852000", "094925.855000", "094925.857000", "094925.860000", "094925.862000", "094925.862000", "094925.865000", "094925.867000", "094925.870000", "094925.870000", "094925.872000", "094925.875000", "094925.877000", "094925.877000", "094925.880000", "094925.882000", "094925.885000", "094925.885000", "094925.887000", "094925.890000", "095005.853000", "095005.855000", "095005.858000", "095005.860000", "095005.863000", "095005.863000", "095005.865000", "095005.868000", "095005.870000", "095005.870000", "095005.873000", "095005.875000", "095005.878000", "095005.878000", "095005.880000", "095005.883000", "095005.885000", "095005.885000", "095005.888000", "095005.890000", "095015.033000", "095015.035000", "095015.038000", "095015.038000", "095015.040000"],
      "InstanceNumber": [1, 2, 3, 4, 5, 6, 7, 8, 9, 10, 11, 12, 13, 14, 15, 16, 17, 18, 19, 20, 21, 22, 23, 24, 25, 26, 27, 28, 29, 30, 31, 32, 33, 34, 35, 36, 37, 38, 39, 40, 41, 42, 43, 44, 45, 46, 47, 48, 49, 50, 51, 52, 53, 54, 55, 56, 57, 58, 59, 60, 61, 62, 63, 64, 65, 66, 67, 68, 69, 70, 71, 72, 73, 74, 75, 76, 77, 78, 79, 80, 81, 82, 83, 84, 85, 86, 87, 88, 89, 90, 91, 92, 93, 94, 95, 96, 97, 98, 99, 100, 101, 102, 103, 104, 105, 106, 107, 108, 109, 110, 111, 112, 113, 114, 115, 116, 117, 118, 119, 120, 121, 122, 123, 124, 125, 126, 127, 128, 129, 130, 131, 132, 133, 134, 135, 136, 137, 138, 139, 140, 141, 142, 143, 144, 145, 146, 147, 148, 149, 150, 151, 152, 153, 154, 155, 156, 157, 158, 159, 160, 161, 162, 163, 164, 165, 166, 167, 168, 169, 170, 171, 172, 173, 174, 175, 176, 177, 178, 179, 180, 181, 182, 183, 184, 185, 186, 187, 188, 189, 190, 191, 192, 193, 194, 195, 196, 197, 198, 199, 200, 201, 202, 203, 204, 205, 206, 207, 208, 209, 210, 211, 212, 213, 214, 215, 216, 217, 218, 219, 220, 221, 222, 223, 224, 225, 226, 227, 228, 229, 230, 231, 232, 233, 234, 235, 236, 237, 238, 239, 240, 241, 242, 243, 244, 245, 246, 247, 248, 249, 250, 251, 252, 253, 254, 255, 256, 257, 258, 259, 260, 261, 262, 263, 264, 265, 266, 267, 268, 269, 270, 271, 272, 273, 274, 275, 276, 277, 278, 279, 280, 281, 282, 283, 284, 285, 286, 287, 288, 289, 290, 291, 292, 293, 294, 295, 296, 297, 298, 299, 300],
      "LargestImagePixelValue": [1553, 1521, 1581, 1525, 1517, 1474, 1635, 1614, 1520, 1527, 1533, 1515, 1602, 1628, 1516, 1517, 1591, 1585, 1529, 1499, 1521, 1582, 1593, 1576, 1518, 1563, 1513, 1573, 1493, 1543, 1565, 1594, 1572, 1628, 1565, 1522, 1505, 1582, 1509, 1596, 1568, 1552, 1584, 1593, 1574, 1557, 1591, 1540, 1502, 1572, 1528, 1642, 1546, 1499, 1499, 1596, 1589, 1537, 1545, 1546, 1521, 1583, 1514, 1517, 1490, 1628, 1667, 1510, 1499, 1565, 1583, 1589, 1526, 1510, 1562, 1582, 1552, 1569, 1577, 1618, 1605, 1520, 1594, 1558, 1587, 1525, 1521, 1555, 1489, 1496, 1604, 1560, 1623, 1543, 1525, 1590, 1533, 1542, 1551, 1550, 1562, 1575, 1532, 1587, 1532, 1591, 1591, 1547, 1491, 1593, 1573, 1634, 1573, 1505, 1512, 1527, 1565, 1590, 1603, 1537, 1515, 1514, 1540, 1600, 1579, 1603, 1563, 1511, 1500, 1543, 1586, 1605, 1525, 1512, 1585, 1556, 1617, 1623, 1561, 1461, 1477, 1610, 1493, 1577, 1616, 1585, 1538, 1512, 1468, 1497, 1571, 1537, 1636, 1531, 1659, 1463, 1534, 1602, 1508, 1603, 1578, 1648, 1493, 1495, 1487, 1482, 1582, 1547, 1625, 1545, 1599, 1451, 1487, 1612, 1525, 1746, 1658, 1698, 1470, 1490, 1496, 1539, 1587, 1668, 1670, 1545, 1463, 1501, 1526, 1480, 1641, 1644, 1559, 1647, 1502, 1514, 1474, 1482, 1619, 1523, 1740, 1571, 1705, 1475, 1475, 1571, 1525, 1752, 1577, 1628, 1435, 1455, 1511, 1479, 1597, 1569, 1628, 1485, 1494, 1528, 1527, 1589, 1719, 1561, 1719, 1503, 1524, 1578, 1615, 1597, 1753, 1478, 1486, 1627, 1506, 1623, 1589, 1732, 1594, 1590, 1477, 1484, 1586, 1478, 1624, 1607, 1733, 1511, 1560, 1612, 1770, 1517, 1490, 1572, 1534, 1678, 1546, 1578, 1589, 1586, 1720, 1514, 1610, 1552, 1714, 1657, 1526, 1523, 1563, 1711, 1545, 1743, 1509, 1561, 1559, 1656, 1613, 1700, 1528, 1754, 1558, 1563, 1644, 1577, 1732, 1596, 1619, 1532, 1529, 1576, 1714, 1717, 1621, 1504, 1512, 1501, 1553, 1671, 1627, 1974],
      "WindowCenter": [570.0, 565.0, 565.0, 563.0, 564.0, 564.0, 565.0, 564.0, 564.0, 564.0, 565.0, 564.0, 566.0, 565.0, 565.0, 563.0, 565.0, 565.0, 566.0, 565.0, 566.0, 567.0, 566.0, 566.0, 564.0, 565.0, 564.0, 566.0, 565.0, 566.0, 566.0, 569.0, 568.0, 569.0, 567.0, 567.0, 565.0, 566.0, 564.0, 567.0, 566.0, 567.0, 567.0, 568.0, 567.0, 568.0, 567.0, 567.0, 566.0, 567.0, 566.0, 568.0, 567.0, 567.0, 565.0, 568.0, 568.0, 569.0, 568.0, 569.0, 568.0, 570.0, 568.0, 568.0, 567.0, 569.0, 568.0, 569.0, 568.0, 570.0, 569.0, 570.0, 569.0, 568.0, 569.0, 569.0, 570.0, 570.0, 571.0, 570.0, 571.0, 569.0, 569.0, 569.0, 570.0, 569.0, 572.0, 571.0, 572.0, 570.0, 571.0, 569.0, 570.0, 569.0, 568.0, 570.0, 569.0, 570.0, 569.0, 570.0, 570.0, 571.0, 570.0, 571.0, 571.0, 572.0, 570.0, 571.0, 570.0, 570.0, 569.0, 570.0, 569.0, 570.0, 569.0, 570.0, 570.0, 572.0, 571.0, 572.0, 570.0, 572.0, 571.0, 572.0, 572.0, 572.0, 571.0, 571.0, 570.0, 570.0, 571.0, 572.0, 572.0, 571.0, 571.0, 570.0, 572.0, 571.0, 571.0, 569.0, 570.0, 572.0, 570.0, 572.0, 571.0, 573.0, 572.0, 572.0, 570.0, 571.0, 573.0, 572.0, 574.0, 572.0, 573.0, 571.0, 570.0, 571.0, 570.0, 572.0, 572.0, 573.0, 570.0, 572.0, 571.0, 572.0, 573.0, 572.0, 573.0, 572.0, 574.0, 574.0, 574.0, 576.0, 574.0, 575.0, 574.0, 574.0, 572.0, 573.0, 573.0, 573.0, 573.0, 573.0, 574.0, 572.0, 572.0, 572.0, 573.0, 572.0, 573.0, 573.0, 572.0, 574.0, 572.0, 574.0, 573.0, 573.0, 574.0, 572.0, 575.0, 573.0, 574.0, 573.0, 572.0, 574.0, 573.0, 576.0, 573.0, 574.0, 572.0, 572.0, 573.0, 572.0, 574.0, 574.0, 575.0, 573.0, 574.0, 574.0, 575.0, 574.0, 576.0, 575.0, 576.0, 574.0, 575.0, 574.0, 576.0, 577.0, 577.0, 574.0, 573.0, 575.0, 573.0, 575.0, 574.0, 576.0, 576.0, 575.0, 574.0, 574.0, 575.0, 573.0, 575.0, 575.0, 577.0, 575.0, 576.0, 576.0, 576.0, 574.0, 573.0, 575.0, 575.0, 577.0, 575.0, 576.0, 576.0, 574.0, 576.0, 574.0, 576.0, 575.0, 576.0, 576.0, 576.0, 577.0, 576.0, 577.0, 575.0, 576.0, 574.0, 575.0, 575.0, 576.0, 576.0, 577.0, 576.0, 577.0, 576.0, 575.0, 576.0, 575.0, 578.0, 576.0, 577.0, 576.0, 577.0, 577.0, 577.0, 577.0, 576.0, 575.0, 575.0, 576.0, 576.0, 578.0, 578.0, 581.0],
      "WindowWidth": [1201.0, 1189.0, 1190.0, 1185.0, 1186.0, 1186.0, 1189.0, 1187.0, 1188.0, 1186.0, 1190.0, 1186.0, 1190.0, 1188.0, 1190.0, 1186.0, 1189.0, 1189.0, 1191.0, 1188.0, 1191.0, 1192.0, 1191.0, 1192.0, 1187.0, 1190.0, 1187.0, 1192.0, 1188.0, 1191.0, 1190.0, 1198.0, 1195.0, 1198.0, 1193.0, 1193.0, 1190.0, 1192.0, 1188.0, 1193.0, 1192.0, 1194.0, 1194.0, 1196.0, 1194.0, 1195.0, 1194.0, 1194.0, 1190.0, 1192.0, 1191.0, 1195.0, 1192.0, 1194.0, 1190.0, 1195.0, 1195.0, 1198.0, 1196.0, 1197.0, 1196.0, 1199.0, 1195.0, 1196.0, 1193.0, 1198.0, 1195.0, 1197.0, 1195.0, 1199.0, 1198.0, 1199.0, 1197.0, 1196.0, 1197.0, 1196.0, 1199.0, 1201.0, 1201.0, 1200.0, 1201.0, 1197.0, 1198.0, 1197.0, 1201.0, 1198.0, 1203.0, 1203.0, 1205.0, 1199.0, 1202.0, 1197.0, 1199.0, 1198.0, 1195.0, 1200.0, 1197.0, 1201.0, 1198.0, 1201.0, 1200.0, 1202.0, 1201.0, 1203.0, 1201.0, 1205.0, 1200.0, 1202.0, 1199.0, 1201.0, 1198.0, 1200.0, 1198.0, 1200.0, 1197.0, 1200.0, 1201.0, 1204.0, 1201.0, 1204.0, 1201.0, 1204.0, 1202.0, 1205.0, 1205.0, 1204.0, 1202.0, 1203.0, 1199.0, 1200.0, 1201.0, 1205.0, 1204.0, 1201.0, 1202.0, 1200.0, 1204.0, 1203.0, 1203.0, 1198.0, 1200.0, 1203.0, 1199.0, 1204.0, 1203.0, 1206.0, 1204.0, 1203.0, 1201.0, 1202.0, 1207.0, 1205.0, 1208.0, 1205.0, 1207.0, 1202.0, 1201.0, 1202.0, 1200.0, 1204.0, 1203.0, 1206.0, 1201.0, 1205.0, 1203.0, 1204.0, 1205.0, 1204.0, 1207.0, 1204.0, 1209.0, 1208.0, 1208.0, 1212.0, 1208.0, 1211.0, 1208.0, 1209.0, 1205.0, 1207.0, 1206.0, 1207.0, 1206.0, 1207.0, 1208.0, 1205.0, 1204.0, 1203.0, 1207.0, 1205.0, 1206.0, 1207.0, 1204.0, 1208.0, 1204.0, 1208.0, 1207.0, 1206.0, 1209.0, 1205.0, 1210.0, 1207.0, 1209.0, 1207.0, 1205.0, 1209.0, 1207.0, 1212.0, 1207.0, 1208.0, 1205.0, 1206.0, 1207.0, 1205.0, 1210.0, 1209.0, 1211.0, 1207.0, 1210.0, 1210.0, 1211.0, 1209.0, 1214.0, 1212.0, 1213.0, 1209.0, 1210.0, 1209.0, 1213.0, 1214.0, 1214.0, 1210.0, 1208.0, 1210.0, 1207.0, 1211.0, 1209.0, 1213.0, 1212.0, 1211.0, 1210.0, 1208.0, 1210.0, 1208.0, 1212.0, 1210.0, 1214.0, 1210.0, 1213.0, 1212.0, 1214.0, 1209.0, 1207.0, 1211.0, 1212.0, 1216.0, 1212.0, 1213.0, 1213.0, 1209.0, 1214.0, 1210.0, 1214.0, 1211.0, 1213.0, 1214.0, 1214.0, 1215.0, 1214.0, 1216.0, 1211.0, 1213.0, 1209.0, 1211.0, 1210.0, 1214.0, 1213.0, 1215.0, 1213.0, 1215.0, 1212.0, 1211.0, 1214.0, 1212.0, 1217.0, 1213.0, 1216.0, 1213.0, 1216.0, 1214.0, 1216.0, 1216.0, 1214.0, 1212.0, 1211.0, 1214.0, 1213.0, 1217.0, 1216.0, 1224.0]
    },
    "slices": {}
  }
}