{
  "AcquisitionMatrixPE": 74,
  "AcquisitionNumber": 1,
  "AcquisitionTime": "12:17:3.407500",
  "BandwidthPerPixelPhaseEncode": 27.579,
  "BaseResolution": 74,
  "BodyPartExamined": "HEAD",
  "CoilString": "t:HEA;HEP",
  "ConversionSoftware": "dcm2niix",
  "ConversionSoftwareVersion": "v1.0.20190410  GCC6.3.0",
  "DerivedVendorReportedEchoSpacing": 0.000489993,
  "DeviceSerialNumber": "35256",
  "DwellTime": 2.4e-06,
  "EchoTime": 0.03,
  "EffectiveEchoSpacing": 0.000489993,
  "FlipAngle": 70,
  "ImageOrientationPatientDICOM": [1, 0, 0, 0, 1, 0],
  "ImageType": [
    "ORIGINAL",
    "PRIMARY",
    "M",
    "ND",
    "NORM",
    "MOSAIC"
],
  "ImagingFrequency": 123.223,
  "InPlanePhaseEncodingDirectionDICOM": "COL",
  "InstitutionAddress": "East_Lee_St._2907_Greensboro_NC_US_27401",
  "InstitutionName": "JSNN",
  "InstitutionalDepartmentName": "Department",
  "MRAcquisitionType": "2D",
  "MagneticFieldStrength": 3,
  "Manufacturer": "Siemens",
  "ManufacturersModelName": "TrioTim",
  "Modality": "MR",
  "PartialFourier": 1,
  "PatientPosition": "HFS",
  "PercentPhaseFOV": 100,
  "PhaseEncodingDirection": "j-",
  "PhaseEncodingSteps": 74,
  "PhaseResolution": 1,
  "PixelBandwidth": 2815,
  "ProcedureStepDescription": "head_Cassidy",
  "ProtocolName": "RestingState",
  "PulseSequenceDetails": "%SiemensSeq%_ep2d_bold",
  "ReceiveCoilName": "HeadMatrix",
  "ReconMatrixPE": 74,
  "RepetitionTime": 2,
  "SAR": 0.099857,
  "ScanOptions": "FS",
  "ScanningSequence": "EP",
  "SequenceName": "_epfid2d1_74",
  "SequenceVariant": "SK",
  "SeriesDescription": "RestingState",
  "SeriesNumber": 3,
  "ShimSetting": [1397, 10633, -8748, 426, 74, -122, -303, -68],
  "SliceThickness": 4,
  "SliceTiming": [1.945, 1.8825, 1.82, 1.7575, 1.695, 1.6325, 1.57, 1.505, 1.4425, 1.38, 1.3175, 1.255, 1.1925, 1.13, 1.0675, 1.005, 0.9425, 0.88, 0.815, 0.7525, 0.69, 0.6275, 0.565, 0.5025, 0.44, 0.3775, 0.315, 0.2525, 0.19, 0.125, 0.0625, 0],
  "SoftwareVersions": "syngo_MR_B19",
  "SpacingBetweenSlices": 4,
  "StationName": "JSNNMRI",
  "TaskName": "rest",
  "TotalReadoutTime": 0.0357695,
  "TxRefAmp": 247.472,
  "dcmmeta_affine": [
    [-2.972972869873047, 0.0, 0.0, 105.18071746826172],
    [0.0, 2.972972869873047, 0.0, -89.55714416503906],
    [0.0, 0.0, 4.0, -36.65542221069336],
    [0.0, 0.0, 0.0, 1.0]
],
  "dcmmeta_reorient_transform": [
    [0.0, -1.0, 0.0, 73.0],
    [1.0, 0.0, 0.0, 0.0],
    [0.0, 0.0, 1.0, 0.0],
    [0.0, 0.0, 0.0, 1.0]
],
  "dcmmeta_shape": [74, 74, 32, 300],
  "dcmmeta_slice_dim": 2,
  "dcmmeta_version": 0.6,
  "global": {
    "const": {
      "AcquisitionMatrix": [74, 0, 0, 74],
      "AngioFlag": "N",
      "BitsAllocated": 16,
      "BitsStored": 12,
      "BodyPartExamined": "HEAD",
      "Columns": 444,
      "EchoNumbers": 1,
      "EchoTime": 30.0,
      "EchoTrainLength": 1,
      "FlipAngle": 70.0,
      "HighBit": 11,
      "ImageOrientationPatient": [1.0, 0.0, 0.0, 0.0, 1.0, 0.0],
      "ImagePositionPatient": [-655.18069982529, -677.46985626221, -36.655422210693],
      "ImageType": [
        "ORIGINAL",
        "PRIMARY",
        "M",
        "ND",
        "NORM",
        "MOSAIC"
],
      "ImagedNucleus": "1H",
      "ImagingFrequency": 123.22313,
      "InPlanePhaseEncodingDirection": "COL",
      "MRAcquisitionType": "2D",
      "MagneticFieldStrength": 3.0,
      "Manufacturer": "SIEMENS",
      "ManufacturerModelName": "TrioTim",
      "Modality": "MR",
      "NumberOfAverages": 1.0,
      "NumberOfPhaseEncodingSteps": 74,
      "PercentPhaseFieldOfView": 100.0,
      "PercentSampling": 100.0,
      "PerformedProcedureStepStartTime": "113709.646000",
      "PhotometricInterpretation": "MONOCHROME2",
      "PixelBandwidth": 2815.0,
      "PixelRepresentation": 0,
      "PixelSpacing": [2.972972869873, 2.972972869873],
      "ProtocolName": "RestingState",
      "RepetitionTime": 2000.0,
      "Rows": 444,
      "SAR": 0.09985698916606,
      "SamplesPerPixel": 1,
      "ScanOptions": "FS",
      "ScanningSequence": "EP",
      "SequenceName": "*epfid2d1_74",
      "SequenceVariant": "SK",
      "SeriesDescription": "RestingState",
      "SeriesNumber": 3,
      "SeriesTime": "121707.656000",
      "SliceLocation": -36.655422210693,
      "SliceThickness": 4.0,
      "SmallestImagePixelValue": 0,
      "SoftwareVersions": "syngo MR B19",
      "SpacingBetweenSlices": 4.0000001230548,
      "SpecificCharacterSet": "ISO_IR 100",
      "StudyID": "1",
      "StudyTime": "113709.591000",
      "TransmitCoilName": "Body",
      "VariableFlipAngleFlag": "N",
      "WindowCenterWidthExplanation": "Algo1",
      "dBdt": 0.0},
    "slices": {}
  },
  "time": {
    "samples": {
      "AcquisitionNumber": [1, 2, 3, 4, 5, 6, 7, 8, 9, 10, 11, 12, 13, 14, 15, 16, 17, 18, 19, 20, 21, 22, 23, 24, 25, 26, 27, 28, 29, 30, 31, 32, 33, 34, 35, 36, 37, 38, 39, 40, 41, 42, 43, 44, 45, 46, 47, 48, 49, 50, 51, 52, 53, 54, 55, 56, 57, 58, 59, 60, 61, 62, 63, 64, 65, 66, 67, 68, 69, 70, 71, 72, 73, 74, 75, 76, 77, 78, 79, 80, 81, 82, 83, 84, 85, 86, 87, 88, 89, 90, 91, 92, 93, 94, 95, 96, 97, 98, 99, 100, 101, 102, 103, 104, 105, 106, 107, 108, 109, 110, 111, 112, 113, 114, 115, 116, 117, 118, 119, 120, 121, 122, 123, 124, 125, 126, 127, 128, 129, 130, 131, 132, 133, 134, 135, 136, 137, 138, 139, 140, 141, 142, 143, 144, 145, 146, 147, 148, 149, 150, 151, 152, 153, 154, 155, 156, 157, 158, 159, 160, 161, 162, 163, 164, 165, 166, 167, 168, 169, 170, 171, 172, 173, 174, 175, 176, 177, 178, 179, 180, 181, 182, 183, 184, 185, 186, 187, 188, 189, 190, 191, 192, 193, 194, 195, 196, 197, 198, 199, 200, 201, 202, 203, 204, 205, 206, 207, 208, 209, 210, 211, 212, 213, 214, 215, 216, 217, 218, 219, 220, 221, 222, 223, 224, 225, 226, 227, 228, 229, 230, 231, 232, 233, 234, 235, 236, 237, 238, 239, 240, 241, 242, 243, 244, 245, 246, 247, 248, 249, 250, 251, 252, 253, 254, 255, 256, 257, 258, 259, 260, 261, 262, 263, 264, 265, 266, 267, 268, 269, 270, 271, 272, 273, 274, 275, 276, 277, 278, 279, 280, 281, 282, 283, 284, 285, 286, 287, 288, 289, 290, 291, 292, 293, 294, 295, 296, 297, 298, 299, 300],
      "AcquisitionTime": ["121703.407500", "121705.415000", "121707.425000", "121709.432500", "121711.440000", "121713.447500", "121715.455000", "121717.465000", "121719.472500", "121721.480000", "121723.487500", "121725.495000", "121727.505000", "121729.512500", "121731.520000", "121733.527500", "121735.537500", "121737.545000", "121739.552500", "121741.560000", "121743.567500", "121745.577500", "121747.585000", "121749.592500", "121751.600000", "121753.607500", "121755.617500", "121757.625000", "121759.632500", "121801.640000", "121803.650000", "121805.657500", "121807.665000", "121809.672500", "121811.680000", "121813.690000", "121815.697500", "121817.705000", "121819.712500", "121821.720000", "121823.730000", "121825.737500", "121827.745000", "121829.752500", "121831.760000", "121833.770000", "121835.777500", "121837.785000", "121839.792500", "121841.802500", "121843.810000", "121845.817500", "121847.825000", "121849.832500", "121851.842500", "121853.850000", "121855.857500", "121857.865000", "121859.872500", "121901.882500", "121903.890000", "121905.897500", "121907.905000", "121909.915000", "121911.922500", "121913.930000", "121915.937500", "121917.945000", "121919.955000", "121921.962500", "121923.970000", "121925.977500", "121927.985000", "121929.995000", "121932.002500", "121934.010000", "121936.017500", "121938.027500", "121940.035000", "121942.042500", "121944.050000", "121946.057500", "121948.067500", "121950.075000", "121952.082500", "121954.090000", "121956.097500", "121958.107500", "122000.115000", "122002.122500", "122004.130000", "122006.137500", "122008.147500", "122010.155000", "122012.162500", "122014.170000", "122016.180000", "122018.187500", "122020.195000", "122022.202500", "122024.210000", "122026.220000", "122028.227500", "122030.235000", "122032.242500", "122034.250000", "122036.260000", "122038.267500", "122040.275000", "122042.282500", "122044.292500", "122046.300000", "122048.307500", "122050.315000", "122052.322500", "122054.332500", "122056.340000", "122058.347500", "122100.355000", "122102.362500", "122104.372500", "122106.380000", "122108.387500", "122110.395000", "122112.405000", "122114.412500", "122116.420000", "122118.427500", "122120.435000", "122122.445000", "122124.452500", "122126.460000", "122128.467500", "122130.475000", "122132.485000", "122134.492500", "122136.500000", "122138.507500", "122140.517500", "122142.525000", "122144.532500", "122146.540000", "122148.547500", "122150.557500", "122152.565000", "122154.572500", "122156.580000", "122158.587500", "122200.597500", "122202.605000", "122204.612500", "122206.620000", "122208.627500", "122210.637500", "122212.645000", "122214.652500", "122216.660000", "122218.670000", "122220.677500", "122222.685000", "122224.692500", "122226.700000", "122228.710000", "122230.717500", "122232.725000", "122234.732500", "122236.740000", "122238.750000", "122240.757500", "122242.765000", "122244.772500", "122246.782500", "122248.790000", "122250.797500", "122252.805000", "122254.812500", "122256.822500", "122258.830000", "122300.837500", "122302.845000", "122304.852500", "122306.862500", "122308.870000", "122310.877500", "122312.885000", "122314.895000", "122316.902500", "122318.910000", "122320.917500", "122322.925000", "122324.935000", "122326.942500", "122328.950000", "122330.957500", "122332.965000", "122334.975000", "122336.982500", "122338.990000", "122340.997500", "122343.005000", "122345.015000", "122347.022500", "122349.030000", "122351.037500", "122353.047500", "122355.055000", "122357.062500", "122359.070000", "122401.077500", "122403.087500", "122405.095000", "122407.102500", "122409.110000", "122411.117500", "122413.127500", "122415.135000", "122417.142500", "122419.150000", "122421.160000", "122423.167500", "122425.175000", "122427.182500", "122429.190000", "122431.200000", "122433.207500", "122435.215000", "122437.222500", "122439.230000", "122441.240000", "122443.247500", "122445.255000", "122447.262500", "122449.272500", "122451.280000", "122453.287500", "122455.295000", "122457.302500", "122459.312500", "122501.320000", "122503.327500", "122505.335000", "122507.342500", "122509.352500", "122511.360000", "122513.367500", "122515.375000", "122517.382500", "122519.392500", "122521.400000", "122523.407500", "122525.415000", "122527.425000", "122529.432500", "122531.440000", "122533.447500", "122535.455000", "122537.465000", "122539.472500", "122541.480000", "122543.487500", "122545.495000", "122547.505000", "122549.512500", "122551.520000", "122553.527500", "122555.537500", "122557.545000", "122559.552500", "122601.560000", "122603.567500", "122605.577500", "122607.585000", "122609.592500", "122611.600000", "122613.607500", "122615.617500", "122617.625000", "122619.632500", "122621.640000", "122623.650000", "122625.657500", "122627.665000", "122629.672500", "122631.680000", "122633.690000", "122635.697500", "122637.705000", "122639.712500", "122641.720000", "122643.730000", "122645.737500", "122647.745000", "122649.752500", "122651.760000", "122653.770000", "122655.777500", "122657.785000", "122659.792500", "122701.802500", "122703.810000"],
      "ContentTime": ["121707.658000", "121707.661000", "121747.644000", "121747.646000", "121747.649000", "121747.651000", "121747.654000", "121747.664000", "121747.666000", "121747.669000", "121747.671000", "121747.671000", "121747.674000", "121747.676000", "121747.679000", "121747.679000", "121747.681000", "121747.684000", "121747.686000", "121747.689000", "121747.689000", "121747.691000", "121827.645000", "121827.647000", "121827.650000", "121827.652000", "121827.655000", "121827.655000", "121827.657000", "121827.660000", "121827.662000", "121827.662000", "121827.665000", "121827.667000", "121827.670000", "121827.675000", "121827.677000", "121827.677000", "121827.680000", "121827.682000", "121827.685000", "121827.685000", "121907.645000", "121907.648000", "121907.650000", "121907.653000", "121907.655000", "121907.655000", "121907.658000", "121907.660000", "121907.663000", "121907.663000", "121907.665000", "121907.668000", "121907.670000", "121907.670000", "121907.673000", "121907.675000", "121907.678000", "121907.678000", "121907.680000", "121907.683000", "121947.646000", "121947.648000", "121947.651000", "121947.653000", "121947.653000", "121947.656000", "121947.658000", "121947.661000", "121947.663000", "121947.663000", "121947.666000", "121947.668000", "121947.671000", "121947.671000", "121947.673000", "121947.676000", "121947.678000", "121947.678000", "121947.681000", "121947.683000", "122027.644000", "122027.646000", "122027.649000", "122027.651000", "122027.654000", "122027.654000", "122027.656000", "122027.659000", "122027.661000", "122027.661000", "122027.664000", "122027.666000", "122027.669000", "122027.669000", "122027.671000", "122027.674000", "122027.676000", "122027.676000", "122027.679000", "122027.681000", "122107.644000", "122107.647000", "122107.649000", "122107.652000", "122107.654000", "122107.654000", "122107.657000", "122107.659000", "122107.662000", "122107.662000", "122107.664000", "122107.667000", "122107.669000", "122107.669000", "122107.672000", "122107.674000", "122107.677000", "122107.677000", "122107.679000", "122107.682000", "122147.648000", "122147.648000", "122147.650000", "122147.653000", "122147.655000", "122147.655000", "122147.658000", "122147.660000", "122147.663000", "122147.663000", "122147.665000", "122147.668000", "122147.670000", "122147.670000", "122147.673000", "122147.675000", "122147.678000", "122147.678000", "122147.680000", "122147.683000", "122227.646000", "122227.648000", "122227.651000", "122227.653000", "122227.656000", "122227.656000", "122227.658000", "122227.661000", "122227.663000", "122227.663000", "122227.666000", "122227.668000", "122227.671000", "122227.671000", "122227.673000", "122227.676000", "122227.678000", "122227.678000", "122227.681000", "122227.683000", "122307.644000", "122307.646000", "122307.659000", "122307.661000", "122307.664000", "122307.664000", "122307.666000", "122307.669000", "122307.671000", "122307.671000", "122307.674000", "122307.676000", "122307.679000", "122307.679000", "122307.681000", "122307.684000", "122307.686000", "122307.686000", "122307.689000", "122307.691000", "122347.644000", "122347.647000", "122347.649000", "122347.652000", "122347.654000", "122347.654000", "122347.657000", "122347.659000", "122347.662000", "122347.662000", "122347.664000", "122347.667000", "122347.669000", "122347.669000", "122347.672000", "122347.674000", "122347.677000", "122347.677000", "122347.679000", "122347.682000", "122427.645000", "122427.648000", "122427.650000", "122427.653000", "122427.655000", "122427.655000", "122427.658000", "122427.660000", "122427.663000", "122427.663000", "122427.665000", "122427.668000", "122427.670000", "122427.670000", "122427.673000", "122427.675000", "122427.678000", "122427.678000", "122427.680000", "122427.683000", "122507.646000", "122507.648000", "122507.651000", "122507.653000", "122507.656000", "122507.656000", "122507.658000", "122507.661000", "122507.663000", "122507.663000", "122507.666000", "122507.668000", "122507.671000", "122507.671000", "122507.673000", "122507.676000", "122507.678000", "122507.678000", "122507.681000", "122507.683000", "122547.644000", "122547.646000", "122547.649000", "122547.651000", "122547.654000", "122547.654000", "122547.656000", "122547.659000", "122547.661000", "122547.661000", "122547.664000", "122547.666000", "122547.669000", "122547.669000", "122547.671000", "122547.674000", "122547.676000", "122547.676000", "122547.679000", "122547.681000", "122627.644000", "122627.647000", "122627.649000", "122627.652000", "122627.654000", "122627.654000", "122627.657000", "122627.659000", "122627.662000", "122627.662000", "122627.664000", "122627.667000", "122627.669000", "122627.669000", "122627.672000", "122627.674000", "122627.677000", "122627.677000", "122627.679000", "122627.682000", "122647.645000", "122647.647000", "122647.650000", "122647.652000", "122647.655000", "122647.655000", "122647.657000", "122647.660000", "122647.662000", "122647.662000", "122702.330000", "122702.332000", "122702.332000", "122702.335000", "122702.337000", "122702.340000", "122702.340000", "122702.342000"],
      "InstanceCreationTime": ["121707.658000", "121707.661000", "121747.644000", "121747.646000", "121747.649000", "121747.651000", "121747.654000", "121747.664000", "121747.666000", "121747.669000", "121747.671000", "121747.671000", "121747.674000", "121747.676000", "121747.679000", "121747.679000", "121747.681000", "121747.684000", "121747.686000", "121747.689000", "121747.689000", "121747.691000", "121827.645000", "121827.647000", "121827.650000", "121827.652000", "121827.655000", "121827.655000", "121827.657000", "121827.660000", "121827.662000", "121827.662000", "121827.665000", "121827.667000", "121827.670000", "121827.675000", "121827.677000", "121827.677000", "121827.680000", "121827.682000", "121827.685000", "121827.685000", "121907.645000", "121907.648000", "121907.650000", "121907.653000", "121907.655000", "121907.655000", "121907.658000", "121907.660000", "121907.663000", "121907.663000", "121907.665000", "121907.668000", "121907.670000", "121907.670000", "121907.673000", "121907.675000", "121907.678000", "121907.678000", "121907.680000", "121907.683000", "121947.646000", "121947.648000", "121947.651000", "121947.653000", "121947.653000", "121947.656000", "121947.658000", "121947.661000", "121947.663000", "121947.663000", "121947.666000", "121947.668000", "121947.671000", "121947.671000", "121947.673000", "121947.676000", "121947.678000", "121947.678000", "121947.681000", "121947.683000", "122027.644000", "122027.646000", "122027.649000", "122027.651000", "122027.654000", "122027.654000", "122027.656000", "122027.659000", "122027.661000", "122027.661000", "122027.664000", "122027.666000", "122027.669000", "122027.669000", "122027.671000", "122027.674000", "122027.676000", "122027.676000", "122027.679000", "122027.681000", "122107.644000", "122107.647000", "122107.649000", "122107.652000", "122107.654000", "122107.654000", "122107.657000", "122107.659000", "122107.662000", "122107.662000", "122107.664000", "122107.667000", "122107.669000", "122107.669000", "122107.672000", "122107.674000", "122107.677000", "122107.677000", "122107.679000", "122107.682000", "122147.648000", "122147.648000", "122147.650000", "122147.653000", "122147.655000", "122147.655000", "122147.658000", "122147.660000", "122147.663000", "122147.663000", "122147.665000", "122147.668000", "122147.670000", "122147.670000", "122147.673000", "122147.675000", "122147.678000", "122147.678000", "122147.680000", "122147.683000", "122227.646000", "122227.648000", "122227.651000", "122227.653000", "122227.656000", "122227.656000", "122227.658000", "122227.661000", "122227.663000", "122227.663000", "122227.666000", "122227.668000", "122227.671000", "122227.671000", "122227.673000", "122227.676000", "122227.678000", "122227.678000", "122227.681000", "122227.683000", "122307.644000", "122307.646000", "122307.659000", "122307.661000", "122307.664000", "122307.664000", "122307.666000", "122307.669000", "122307.671000", "122307.671000", "122307.674000", "122307.676000", "122307.679000", "122307.679000", "122307.681000", "122307.684000", "122307.686000", "122307.686000", "122307.689000", "122307.691000", "122347.644000", "122347.647000", "122347.649000", "122347.652000", "122347.654000", "122347.654000", "122347.657000", "122347.659000", "122347.662000", "122347.662000", "122347.664000", "122347.667000", "122347.669000", "122347.669000", "122347.672000", "122347.674000", "122347.677000", "122347.677000", "122347.679000", "122347.682000", "122427.645000", "122427.648000", "122427.650000", "122427.653000", "122427.655000", "122427.655000", "122427.658000", "122427.660000", "122427.663000", "122427.663000", "122427.665000", "122427.668000", "122427.670000", "122427.670000", "122427.673000", "122427.675000", "122427.678000", "122427.678000", "122427.680000", "122427.683000", "122507.646000", "122507.648000", "122507.651000", "122507.653000", "122507.656000", "122507.656000", "122507.658000", "122507.661000", "122507.663000", "122507.663000", "122507.666000", "122507.668000", "122507.671000", "122507.671000", "122507.673000", "122507.676000", "122507.678000", "122507.678000", "122507.681000", "122507.683000", "122547.644000", "122547.646000", "122547.649000", "122547.651000", "122547.654000", "122547.654000", "122547.656000", "122547.659000", "122547.661000", "122547.661000", "122547.664000", "122547.666000", "122547.669000", "122547.669000", "122547.671000", "122547.674000", "122547.676000", "122547.676000", "122547.679000", "122547.681000", "122627.644000", "122627.647000", "122627.649000", "122627.652000", "122627.654000", "122627.654000", "122627.657000", "122627.659000", "122627.662000", "122627.662000", "122627.664000", "122627.667000", "122627.669000", "122627.669000", "122627.672000", "122627.674000", "122627.677000", "122627.677000", "122627.679000", "122627.682000", "122647.645000", "122647.647000", "122647.650000", "122647.652000", "122647.655000", "122647.655000", "122647.657000", "122647.660000", "122647.662000", "122647.662000", "122702.330000", "122702.332000", "122702.332000", "122702.335000", "122702.337000", "122702.340000", "122702.340000", "122702.342000"],
      "InstanceNumber": [1, 2, 3, 4, 5, 6, 7, 8, 9, 10, 11, 12, 13, 14, 15, 16, 17, 18, 19, 20, 21, 22, 23, 24, 25, 26, 27, 28, 29, 30, 31, 32, 33, 34, 35, 36, 37, 38, 39, 40, 41, 42, 43, 44, 45, 46, 47, 48, 49, 50, 51, 52, 53, 54, 55, 56, 57, 58, 59, 60, 61, 62, 63, 64, 65, 66, 67, 68, 69, 70, 71, 72, 73, 74, 75, 76, 77, 78, 79, 80, 81, 82, 83, 84, 85, 86, 87, 88, 89, 90, 91, 92, 93, 94, 95, 96, 97, 98, 99, 100, 101, 102, 103, 104, 105, 106, 107, 108, 109, 110, 111, 112, 113, 114, 115, 116, 117, 118, 119, 120, 121, 122, 123, 124, 125, 126, 127, 128, 129, 130, 131, 132, 133, 134, 135, 136, 137, 138, 139, 140, 141, 142, 143, 144, 145, 146, 147, 148, 149, 150, 151, 152, 153, 154, 155, 156, 157, 158, 159, 160, 161, 162, 163, 164, 165, 166, 167, 168, 169, 170, 171, 172, 173, 174, 175, 176, 177, 178, 179, 180, 181, 182, 183, 184, 185, 186, 187, 188, 189, 190, 191, 192, 193, 194, 195, 196, 197, 198, 199, 200, 201, 202, 203, 204, 205, 206, 207, 208, 209, 210, 211, 212, 213, 214, 215, 216, 217, 218, 219, 220, 221, 222, 223, 224, 225, 226, 227, 228, 229, 230, 231, 232, 233, 234, 235, 236, 237, 238, 239, 240, 241, 242, 243, 244, 245, 246, 247, 248, 249, 250, 251, 252, 253, 254, 255, 256, 257, 258, 259, 260, 261, 262, 263, 264, 265, 266, 267, 268, 269, 270, 271, 272, 273, 274, 275, 276, 277, 278, 279, 280, 281, 282, 283, 284, 285, 286, 287, 288, 289, 290, 291, 292, 293, 294, 295, 296, 297, 298, 299, 300],
      "LargestImagePixelValue": [2260, 2116, 1896, 2010, 1971, 2591, 1986, 1798, 1854, 1937, 1883, 1822, 1776, 2526, 2025, 2718, 2052, 2635, 1977, 1791, 2534, 1759, 1930, 2019, 2077, 2074, 2508, 2297, 1940, 1865, 2169, 1809, 1782, 2425, 2015, 2619, 2693, 1807, 2390, 1910, 2382, 1866, 1780, 2919, 2390, 1909, 2037, 1944, 2626, 2098, 2492, 2118, 1816, 1810, 2169, 1776, 1811, 2181, 1814, 2745, 1776, 1897, 2071, 2006, 2086, 2266, 1825, 1841, 2207, 1805, 1809, 2493, 1949, 2397, 1778, 1797, 2061, 1717, 1994, 1877, 1815, 3165, 1888, 2076, 1779, 1998, 1746, 2169, 2475, 1791, 2134, 1796, 2250, 1914, 1806, 2535, 1994, 2227, 2042, 2019, 1835, 1791, 2063, 1803, 1839, 2032, 1857, 2482, 1850, 1907, 1858, 2493, 1943, 1864, 1903, 1802, 2160, 1950, 1849, 2450, 1949, 2620, 2011, 2263, 1767, 2316, 2585, 1971, 1974, 2186, 1902, 2209, 1764, 2325, 2099, 1994, 1915, 2020, 1839, 2646, 2540, 1886, 1824, 1818, 1966, 1810, 2582, 2138, 1914, 1846, 1764, 2066, 2134, 1840, 2078, 2045, 2073, 1885, 1814, 2078, 1990, 2018, 3003, 3378, 2019, 2261, 1819, 1958, 2023, 1824, 2124, 2624, 1966, 2132, 2394, 1859, 1840, 2065, 1940, 2128, 1904, 1859, 1854, 2466, 2770, 3273, 1797, 1916, 2337, 2013, 2423, 2683, 1810, 1926, 2031, 2033, 2184, 1880, 2178, 1830, 1815, 2459, 1942, 2778, 1963, 2653, 2165, 1909, 2009, 1855, 2669, 1859, 1853, 1979, 1842, 1951, 2537, 1921, 1990, 1994, 2190, 2151, 2090, 2001, 2030, 2644, 2100, 2093, 2059, 2456, 1980, 1831, 2412, 2210, 1821, 2374, 2116, 1900, 2080, 1821, 2140, 1856, 1896, 1820, 1928, 1996, 2597, 2718, 1835, 2096, 2085, 2178, 2252, 1876, 1939, 2366, 1893, 1885, 2062, 1859, 2112, 2199, 1877, 3159, 1879, 1888, 2020, 2007, 2415, 1968, 2689, 1821, 2022, 2793, 1912, 2728, 1953, 2575, 2430, 1938, 2028, 1854, 2366, 1848, 1893, 2537, 1971, 2225, 1867, 1951, 1828, 1824, 1820, 2531, 1983, 2183, 1874, 2556, 1921, 1846],
      "WindowCenter": [671.0, 667.0, 664.0, 665.0, 665.0, 666.0, 664.0, 664.0, 664.0, 666.0, 665.0, 665.0, 665.0, 667.0, 665.0, 666.0, 665.0, 666.0, 664.0, 665.0, 667.0, 663.0, 664.0, 665.0, 666.0, 666.0, 667.0, 666.0, 665.0, 664.0, 666.0, 665.0, 665.0, 667.0, 666.0, 668.0, 667.0, 664.0, 667.0, 666.0, 667.0, 665.0, 666.0, 669.0, 667.0, 665.0, 667.0, 668.0, 670.0, 668.0, 669.0, 667.0, 666.0, 666.0, 667.0, 666.0, 666.0, 668.0, 666.0, 668.0, 665.0, 665.0, 667.0, 667.0, 668.0, 668.0, 667.0, 667.0, 668.0, 667.0, 668.0, 669.0, 668.0, 670.0, 667.0, 668.0, 668.0, 666.0, 667.0, 667.0, 668.0, 671.0, 667.0, 669.0, 668.0, 669.0, 669.0, 671.0, 671.0, 668.0, 668.0, 667.0, 671.0, 670.0, 668.0, 671.0, 669.0, 670.0, 670.0, 669.0, 668.0, 669.0, 670.0, 669.0, 670.0, 670.0, 670.0, 671.0, 669.0, 670.0, 671.0, 671.0, 669.0, 668.0, 668.0, 668.0, 668.0, 668.0, 668.0, 670.0, 669.0, 671.0, 669.0, 671.0, 668.0, 669.0, 670.0, 668.0, 668.0, 669.0, 669.0, 671.0, 669.0, 671.0, 669.0, 669.0, 671.0, 671.0, 671.0, 672.0, 671.0, 668.0, 669.0, 670.0, 671.0, 671.0, 672.0, 671.0, 670.0, 670.0, 669.0, 670.0, 670.0, 670.0, 670.0, 671.0, 671.0, 670.0, 670.0, 670.0, 671.0, 673.0, 674.0, 673.0, 670.0, 671.0, 670.0, 670.0, 671.0, 670.0, 671.0, 672.0, 670.0, 671.0, 672.0, 670.0, 670.0, 671.0, 672.0, 673.0, 672.0, 671.0, 672.0, 674.0, 674.0, 674.0, 669.0, 669.0, 671.0, 671.0, 672.0, 672.0, 669.0, 670.0, 670.0, 671.0, 673.0, 672.0, 672.0, 671.0, 670.0, 673.0, 672.0, 674.0, 672.0, 674.0, 671.0, 671.0, 671.0, 671.0, 674.0, 672.0, 671.0, 671.0, 671.0, 673.0, 674.0, 672.0, 673.0, 674.0, 674.0, 673.0, 673.0, 673.0, 673.0, 675.0, 673.0, 673.0, 673.0, 674.0, 672.0, 672.0, 674.0, 673.0, 671.0, 673.0, 673.0, 672.0, 673.0, 671.0, 672.0, 671.0, 671.0, 671.0, 672.0, 672.0, 675.0, 674.0, 671.0, 672.0, 673.0, 674.0, 673.0, 672.0, 672.0, 674.0, 672.0, 672.0, 673.0, 672.0, 674.0, 674.0, 674.0, 676.0, 672.0, 672.0, 673.0, 674.0, 675.0, 673.0, 675.0, 672.0, 674.0, 676.0, 672.0, 675.0, 673.0, 675.0, 674.0, 672.0, 673.0, 673.0, 675.0, 673.0, 673.0, 675.0, 673.0, 674.0, 673.0, 674.0, 673.0, 674.0, 674.0, 676.0, 674.0, 675.0, 675.0, 676.0, 675.0, 674.0],
      "WindowWidth": [1454.0, 1442.0, 1435.0, 1437.0, 1437.0, 1439.0, 1435.0, 1435.0, 1435.0, 1439.0, 1438.0, 1437.0, 1438.0, 1441.0, 1437.0, 1440.0, 1438.0, 1440.0, 1435.0, 1436.0, 1441.0, 1433.0, 1435.0, 1436.0, 1439.0, 1439.0, 1442.0, 1439.0, 1436.0, 1435.0, 1440.0, 1438.0, 1436.0, 1442.0, 1440.0, 1444.0, 1443.0, 1435.0, 1443.0, 1438.0, 1443.0, 1437.0, 1441.0, 1448.0, 1443.0, 1437.0, 1443.0, 1446.0, 1451.0, 1445.0, 1447.0, 1442.0, 1439.0, 1439.0, 1443.0, 1440.0, 1440.0, 1444.0, 1440.0, 1446.0, 1437.0, 1438.0, 1441.0, 1443.0, 1445.0, 1445.0, 1442.0, 1442.0, 1446.0, 1443.0, 1446.0, 1448.0, 1445.0, 1451.0, 1441.0, 1444.0, 1446.0, 1440.0, 1441.0, 1441.0, 1444.0, 1453.0, 1442.0, 1447.0, 1444.0, 1448.0, 1448.0, 1454.0, 1455.0, 1445.0, 1446.0, 1443.0, 1452.0, 1451.0, 1446.0, 1452.0, 1448.0, 1451.0, 1450.0, 1448.0, 1445.0, 1447.0, 1450.0, 1448.0, 1450.0, 1451.0, 1451.0, 1453.0, 1448.0, 1450.0, 1454.0, 1455.0, 1448.0, 1444.0, 1444.0, 1445.0, 1446.0, 1445.0, 1446.0, 1451.0, 1448.0, 1452.0, 1449.0, 1452.0, 1445.0, 1448.0, 1450.0, 1444.0, 1444.0, 1449.0, 1449.0, 1453.0, 1449.0, 1453.0, 1447.0, 1447.0, 1452.0, 1454.0, 1452.0, 1457.0, 1452.0, 1446.0, 1447.0, 1450.0, 1453.0, 1454.0, 1456.0, 1453.0, 1450.0, 1451.0, 1448.0, 1451.0, 1451.0, 1450.0, 1451.0, 1453.0, 1453.0, 1450.0, 1450.0, 1451.0, 1452.0, 1459.0, 1460.0, 1460.0, 1451.0, 1454.0, 1452.0, 1451.0, 1453.0, 1450.0, 1452.0, 1455.0, 1450.0, 1454.0, 1456.0, 1450.0, 1451.0, 1455.0, 1457.0, 1458.0, 1455.0, 1452.0, 1457.0, 1462.0, 1461.0, 1461.0, 1449.0, 1449.0, 1455.0, 1452.0, 1456.0, 1456.0, 1448.0, 1450.0, 1452.0, 1454.0, 1458.0, 1455.0, 1457.0, 1453.0, 1452.0, 1459.0, 1456.0, 1461.0, 1457.0, 1461.0, 1454.0, 1453.0, 1454.0, 1454.0, 1461.0, 1455.0, 1453.0, 1453.0, 1452.0, 1458.0, 1461.0, 1455.0, 1459.0, 1461.0, 1461.0, 1459.0, 1459.0, 1458.0, 1459.0, 1464.0, 1459.0, 1458.0, 1459.0, 1461.0, 1455.0, 1455.0, 1461.0, 1457.0, 1454.0, 1460.0, 1457.0, 1456.0, 1458.0, 1454.0, 1456.0, 1452.0, 1452.0, 1453.0, 1457.0, 1456.0, 1463.0, 1462.0, 1453.0, 1456.0, 1457.0, 1460.0, 1458.0, 1456.0, 1456.0, 1460.0, 1456.0, 1457.0, 1458.0, 1457.0, 1460.0, 1461.0, 1460.0, 1468.0, 1456.0, 1455.0, 1458.0, 1460.0, 1465.0, 1459.0, 1464.0, 1457.0, 1460.0, 1466.0, 1457.0, 1465.0, 1458.0, 1463.0, 1460.0, 1456.0, 1459.0, 1459.0, 1464.0, 1460.0, 1459.0, 1464.0, 1458.0, 1460.0, 1459.0, 1460.0, 1459.0, 1462.0, 1461.0, 1467.0, 1461.0, 1465.0, 1464.0, 1467.0, 1463.0, 1462.0]
    },
    "slices": {}
  }
}