{
  "AcquisitionMatrixPE": 74,
  "AcquisitionNumber": 1,
  "AcquisitionTime": "14:24:57.345000",
  "BandwidthPerPixelPhaseEncode": 27.579,
  "BaseResolution": 74,
  "BodyPartExamined": "HEAD",
  "CoilString": "t:HEA;HEP",
  "ConversionSoftware": "dcm2niix",
  "ConversionSoftwareVersion": "v1.0.20190410  GCC6.3.0",
  "DerivedVendorReportedEchoSpacing": 0.000489993,
  "DeviceSerialNumber": "35256",
  "DwellTime": 2.4e-06,
  "EchoTime": 0.03,
  "EffectiveEchoSpacing": 0.000489993,
  "FlipAngle": 70,
  "ImageOrientationPatientDICOM": [1, 0, 0, 0, 1, 0],
  "ImageType": [
    "ORIGINAL",
    "PRIMARY",
    "M",
    "ND",
    "NORM",
    "MOSAIC"
],
  "ImagingFrequency": 123.223,
  "InPlanePhaseEncodingDirectionDICOM": "COL",
  "InstitutionAddress": "East_Lee_St._2907_Greensboro_NC_US_27401",
  "InstitutionName": "JSNN",
  "InstitutionalDepartmentName": "Department",
  "MRAcquisitionType": "2D",
  "MagneticFieldStrength": 3,
  "Manufacturer": "Siemens",
  "ManufacturersModelName": "TrioTim",
  "Modality": "MR",
  "PartialFourier": 1,
  "PatientPosition": "HFS",
  "PercentPhaseFOV": 100,
  "PhaseEncodingDirection": "j-",
  "PhaseEncodingSteps": 74,
  "PhaseResolution": 1,
  "PixelBandwidth": 2815,
  "ProcedureStepDescription": "head_Cassidy",
  "ProtocolName": "RestingState",
  "PulseSequenceDetails": "%SiemensSeq%_ep2d_bold",
  "ReceiveCoilName": "HeadMatrix",
  "ReconMatrixPE": 74,
  "RepetitionTime": 2,
  "SAR": 0.106799,
  "ScanOptions": "FS",
  "ScanningSequence": "EP",
  "SequenceName": "_epfid2d1_74",
  "SequenceVariant": "SK",
  "SeriesDescription": "RestingState",
  "SeriesNumber": 3,
  "ShimSetting": [1406, 10768, -8762, 506, 21, -838, -18, -222],
  "SliceThickness": 4,
  "SliceTiming": [1.9425, 1.88, 1.8175, 1.755, 1.6925, 1.63, 1.5675, 1.505, 1.4425, 1.38, 1.315, 1.2525, 1.19, 1.1275, 1.065, 1.0025, 0.94, 0.8775, 0.815, 0.7525, 0.69, 0.625, 0.5625, 0.5, 0.4375, 0.375, 0.3125, 0.25, 0.1875, 0.125, 0.0625, 0],
  "SoftwareVersions": "syngo_MR_B19",
  "SpacingBetweenSlices": 4,
  "StationName": "JSNNMRI",
  "TaskName": "rest",
  "TotalReadoutTime": 0.0357695,
  "TxRefAmp": 312.477,
  "dcmmeta_affine": [
    [-2.972972869873047, 0.0, 0.0, 105.18071746826172],
    [0.0, 2.972972869873047, 0.0, -105.90895080566406],
    [0.0, 0.0, 4.0, -97.08433532714844],
    [0.0, 0.0, 0.0, 1.0]
],
  "dcmmeta_reorient_transform": [
    [0.0, -1.0, 0.0, 73.0],
    [1.0, 0.0, 0.0, 0.0],
    [0.0, 0.0, 1.0, 0.0],
    [0.0, 0.0, 0.0, 1.0]
],
  "dcmmeta_shape": [74, 74, 32, 300],
  "dcmmeta_slice_dim": 2,
  "dcmmeta_version": 0.6,
  "global": {
    "const": {
      "AcquisitionMatrix": [74, 0, 0, 74],
      "AngioFlag": "N",
      "BitsAllocated": 16,
      "BitsStored": 12,
      "BodyPartExamined": "HEAD",
      "Columns": 444,
      "EchoNumbers": 1,
      "EchoTime": 30.0,
      "EchoTrainLength": 1,
      "FlipAngle": 70.0,
      "HighBit": 11,
      "ImageOrientationPatient": [1.0, 0.0, 0.0, 0.0, 1.0, 0.0],
      "ImagePositionPatient": [-655.18069982529, -661.11804938316, -97.084335327148],
      "ImageType": [
        "ORIGINAL",
        "PRIMARY",
        "M",
        "ND",
        "NORM",
        "MOSAIC"
],
      "ImagedNucleus": "1H",
      "ImagingFrequency": 123.223144,
      "InPlanePhaseEncodingDirection": "COL",
      "MRAcquisitionType": "2D",
      "MagneticFieldStrength": 3.0,
      "Manufacturer": "SIEMENS",
      "ManufacturerModelName": "TrioTim",
      "Modality": "MR",
      "NumberOfAverages": 1.0,
      "NumberOfPhaseEncodingSteps": 74,
      "PercentPhaseFieldOfView": 100.0,
      "PercentSampling": 100.0,
      "PerformedProcedureStepStartTime": "132802.246000",
      "PhotometricInterpretation": "MONOCHROME2",
      "PixelBandwidth": 2815.0,
      "PixelRepresentation": 0,
      "PixelSpacing": [2.972972869873, 2.972972869873],
      "ProtocolName": "RestingState",
      "RepetitionTime": 2000.0,
      "Rows": 444,
      "SAR": 0.1067987646783,
      "SamplesPerPixel": 1,
      "ScanOptions": "FS",
      "ScanningSequence": "EP",
      "SequenceName": "*epfid2d1_74",
      "SequenceVariant": "SK",
      "SeriesDescription": "RestingState",
      "SeriesNumber": 3,
      "SeriesTime": "142544.572000",
      "SliceLocation": -97.084335327148,
      "SliceThickness": 4.0,
      "SmallestImagePixelValue": 0,
      "SoftwareVersions": "syngo MR B19",
      "SpacingBetweenSlices": 3.9999999384726,
      "SpecificCharacterSet": "ISO_IR 100",
      "StudyID": "1",
      "StudyTime": "132802.173000",
      "TransmitCoilName": "Body",
      "VariableFlipAngleFlag": "N",
      "WindowCenterWidthExplanation": "Algo1",
      "dBdt": 0.0},
    "slices": {}
  },
  "time": {
    "samples": {
      "AcquisitionNumber": [1, 2, 3, 4, 5, 6, 7, 8, 9, 10, 11, 12, 13, 14, 15, 16, 17, 18, 19, 20, 21, 22, 23, 24, 25, 26, 27, 28, 29, 30, 31, 32, 33, 34, 35, 36, 37, 38, 39, 40, 41, 42, 43, 44, 45, 46, 47, 48, 49, 50, 51, 52, 53, 54, 55, 56, 57, 58, 59, 60, 61, 62, 63, 64, 65, 66, 67, 68, 69, 70, 71, 72, 73, 74, 75, 76, 77, 78, 79, 80, 81, 82, 83, 84, 85, 86, 87, 88, 89, 90, 91, 92, 93, 94, 95, 96, 97, 98, 99, 100, 101, 102, 103, 104, 105, 106, 107, 108, 109, 110, 111, 112, 113, 114, 115, 116, 117, 118, 119, 120, 121, 122, 123, 124, 125, 126, 127, 128, 129, 130, 131, 132, 133, 134, 135, 136, 137, 138, 139, 140, 141, 142, 143, 144, 145, 146, 147, 148, 149, 150, 151, 152, 153, 154, 155, 156, 157, 158, 159, 160, 161, 162, 163, 164, 165, 166, 167, 168, 169, 170, 171, 172, 173, 174, 175, 176, 177, 178, 179, 180, 181, 182, 183, 184, 185, 186, 187, 188, 189, 190, 191, 192, 193, 194, 195, 196, 197, 198, 199, 200, 201, 202, 203, 204, 205, 206, 207, 208, 209, 210, 211, 212, 213, 214, 215, 216, 217, 218, 219, 220, 221, 222, 223, 224, 225, 226, 227, 228, 229, 230, 231, 232, 233, 234, 235, 236, 237, 238, 239, 240, 241, 242, 243, 244, 245, 246, 247, 248, 249, 250, 251, 252, 253, 254, 255, 256, 257, 258, 259, 260, 261, 262, 263, 264, 265, 266, 267, 268, 269, 270, 271, 272, 273, 274, 275, 276, 277, 278, 279, 280, 281, 282, 283, 284, 285, 286, 287, 288, 289, 290, 291, 292, 293, 294, 295, 296, 297, 298, 299, 300],
      "AcquisitionTime": ["142457.345000", "142459.355000", "142501.362500", "142503.370000", "142505.377500", "142507.385000", "142509.395000", "142511.402500", "142513.410000", "142515.417500", "142517.427500", "142519.435000", "142521.442500", "142523.450000", "142525.457500", "142527.467500", "142529.475000", "142531.482500", "142533.490000", "142535.497500", "142537.507500", "142539.515000", "142541.522500", "142543.530000", "142545.540000", "142547.547500", "142549.555000", "142551.562500", "142553.570000", "142555.580000", "142557.587500", "142559.595000", "142601.602500", "142603.610000", "142605.620000", "142607.627500", "142609.635000", "142611.642500", "142613.650000", "142615.660000", "142617.667500", "142619.675000", "142621.682500", "142623.692500", "142625.700000", "142627.707500", "142629.715000", "142631.722500", "142633.732500", "142635.740000", "142637.747500", "142639.755000", "142641.762500", "142643.772500", "142645.780000", "142647.787500", "142649.795000", "142651.805000", "142653.812500", "142655.820000", "142657.827500", "142659.835000", "142701.845000", "142703.852500", "142705.860000", "142707.867500", "142709.875000", "142711.885000", "142713.892500", "142715.900000", "142717.907500", "142719.917500", "142721.925000", "142723.932500", "142725.940000", "142727.947500", "142729.957500", "142731.965000", "142733.972500", "142735.980000", "142737.987500", "142739.997500", "142742.005000", "142744.012500", "142746.020000", "142748.030000", "142750.037500", "142752.045000", "142754.052500", "142756.060000", "142758.070000", "142800.077500", "142802.085000", "142804.092500", "142806.100000", "142808.110000", "142810.117500", "142812.125000", "142814.132500", "142816.140000", "142818.150000", "142820.157500", "142822.165000", "142824.172500", "142826.182500", "142828.190000", "142830.197500", "142832.205000", "142834.212500", "142836.222500", "142838.230000", "142840.237500", "142842.245000", "142844.252500", "142846.262500", "142848.270000", "142850.277500", "142852.285000", "142854.295000", "142856.302500", "142858.310000", "142900.317500", "142902.325000", "142904.335000", "142906.342500", "142908.350000", "142910.357500", "142912.365000", "142914.375000", "142916.382500", "142918.390000", "142920.397500", "142922.407500", "142924.415000", "142926.422500", "142928.430000", "142930.437500", "142932.447500", "142934.455000", "142936.462500", "142938.470000", "142940.477500", "142942.487500", "142944.495000", "142946.502500", "142948.510000", "142950.517500", "142952.527500", "142954.535000", "142956.542500", "142958.550000", "143000.560000", "143002.567500", "143004.575000", "143006.582500", "143008.590000", "143010.600000", "143012.607500", "143014.615000", "143016.622500", "143018.630000", "143020.640000", "143022.647500", "143024.655000", "143026.662500", "143028.672500", "143030.680000", "143032.687500", "143034.695000", "143036.702500", "143038.712500", "143040.720000", "143042.727500", "143044.735000", "143046.742500", "143048.752500", "143050.760000", "143052.767500", "143054.775000", "143056.785000", "143058.792500", "143100.800000", "143102.807500", "143104.815000", "143106.825000", "143108.832500", "143110.840000", "143112.847500", "143114.855000", "143116.865000", "143118.872500", "143120.880000", "143122.887500", "143124.895000", "143126.905000", "143128.912500", "143130.920000", "143132.927500", "143134.937500", "143136.945000", "143138.952500", "143140.960000", "143142.967500", "143144.977500", "143146.985000", "143148.992500", "143151.000000", "143153.007500", "143155.017500", "143157.025000", "143159.032500", "143201.040000", "143203.050000", "143205.057500", "143207.065000", "143209.072500", "143211.080000", "143213.090000", "143215.097500", "143217.105000", "143219.112500", "143221.120000", "143223.130000", "143225.137500", "143227.145000", "143229.152500", "143231.162500", "143233.170000", "143235.177500", "143237.185000", "143239.192500", "143241.202500", "143243.210000", "143245.217500", "143247.225000", "143249.232500", "143251.242500", "143253.250000", "143255.257500", "143257.265000", "143259.272500", "143301.282500", "143303.290000", "143305.297500", "143307.305000", "143309.315000", "143311.322500", "143313.330000", "143315.337500", "143317.345000", "143319.355000", "143321.362500", "143323.370000", "143325.377500", "143327.385000", "143329.395000", "143331.402500", "143333.410000", "143335.417500", "143337.427500", "143339.435000", "143341.442500", "143343.450000", "143345.457500", "143347.467500", "143349.475000", "143351.482500", "143353.490000", "143355.497500", "143357.507500", "143359.515000", "143401.522500", "143403.530000", "143405.540000", "143407.547500", "143409.555000", "143411.562500", "143413.570000", "143415.580000", "143417.587500", "143419.595000", "143421.602500", "143423.610000", "143425.620000", "143427.627500", "143429.635000", "143431.642500", "143433.650000", "143435.660000", "143437.667500", "143439.675000", "143441.682500", "143443.692500", "143445.700000", "143447.707500", "143449.715000", "143451.722500", "143453.732500", "143455.740000", "143457.747500"],
      "ContentTime": ["142544.575000", "142544.577000", "142544.580000", "142544.582000", "142544.585000", "142544.585000", "142544.587000", "142544.590000", "142544.592000", "142544.592000", "142544.595000", "142544.597000", "142544.600000", "142544.610000", "142544.615000", "142544.620000", "142544.622000", "142544.625000", "142544.627000", "142544.627000", "142544.630000", "142544.632000", "142544.635000", "142624.570000", "142624.573000", "142624.575000", "142624.578000", "142624.580000", "142624.580000", "142624.583000", "142624.585000", "142624.588000", "142624.588000", "142624.590000", "142624.593000", "142624.595000", "142624.595000", "142624.598000", "142624.600000", "142624.603000", "142624.603000", "142624.605000", "142624.608000", "142704.571000", "142704.573000", "142704.576000", "142704.578000", "142704.581000", "142704.581000", "142704.583000", "142704.586000", "142704.588000", "142704.588000", "142704.591000", "142704.593000", "142704.596000", "142704.596000", "142704.598000", "142704.601000", "142704.603000", "142704.603000", "142704.606000", "142704.608000", "142744.571000", "142744.574000", "142744.576000", "142744.579000", "142744.581000", "142744.581000", "142744.584000", "142744.586000", "142744.589000", "142744.589000", "142744.591000", "142744.594000", "142744.596000", "142744.596000", "142744.599000", "142744.601000", "142744.604000", "142744.604000", "142744.606000", "142744.609000", "142824.570000", "142824.572000", "142824.575000", "142824.577000", "142824.580000", "142824.580000", "142824.582000", "142824.585000", "142824.587000", "142824.587000", "142824.590000", "142824.592000", "142824.595000", "142824.595000", "142824.597000", "142824.600000", "142824.602000", "142824.602000", "142824.605000", "142824.607000", "142904.570000", "142904.573000", "142904.575000", "142904.578000", "142904.578000", "142904.580000", "142904.583000", "142904.585000", "142904.585000", "142904.603000", "142904.605000", "142904.608000", "142904.608000", "142904.610000", "142904.613000", "142904.615000", "142904.615000", "142904.618000", "142904.620000", "142904.623000", "142944.571000", "142944.573000", "142944.576000", "142944.578000", "142944.581000", "142944.581000", "142944.583000", "142944.586000", "142944.588000", "142944.588000", "142944.591000", "142944.593000", "142944.596000", "142944.596000", "142944.598000", "142944.601000", "142944.603000", "142944.603000", "142944.606000", "142944.608000", "143024.571000", "143024.574000", "143024.576000", "143024.579000", "143024.581000", "143024.581000", "143024.584000", "143024.586000", "143024.589000", "143024.589000", "143024.591000", "143024.594000", "143024.596000", "143024.596000", "143024.599000", "143024.601000", "143024.604000", "143024.604000", "143024.606000", "143024.609000", "143104.569000", "143104.572000", "143104.574000", "143104.577000", "143104.579000", "143104.579000", "143104.582000", "143104.584000", "143104.587000", "143104.587000", "143104.589000", "143104.592000", "143104.594000", "143104.597000", "143104.597000", "143104.599000", "143104.602000", "143104.604000", "143104.604000", "143104.607000", "143124.570000", "143124.572000", "143124.575000", "143124.577000", "143124.580000", "143124.580000", "143124.582000", "143124.585000", "143124.587000", "143124.587000", "143204.570000", "143204.573000", "143204.575000", "143204.578000", "143204.580000", "143204.580000", "143204.583000", "143204.585000", "143204.588000", "143204.588000", "143204.590000", "143204.593000", "143204.595000", "143204.595000", "143204.598000", "143204.600000", "143204.603000", "143204.610000", "143204.613000", "143204.613000", "143244.571000", "143244.574000", "143244.576000", "143244.579000", "143244.581000", "143244.581000", "143244.584000", "143244.586000", "143244.589000", "143244.589000", "143244.591000", "143244.594000", "143244.596000", "143244.596000", "143244.599000", "143244.601000", "143244.604000", "143244.604000", "143244.606000", "143244.609000", "143324.572000", "143324.574000", "143324.577000", "143324.579000", "143324.582000", "143324.582000", "143324.584000", "143324.587000", "143324.589000", "143324.589000", "143324.592000", "143324.594000", "143324.597000", "143324.597000", "143324.599000", "143324.602000", "143324.604000", "143324.604000", "143324.607000", "143324.609000", "143404.570000", "143404.572000", "143404.575000", "143404.577000", "143404.580000", "143404.580000", "143404.582000", "143404.585000", "143404.587000", "143404.587000", "143404.590000", "143404.592000", "143404.595000", "143404.595000", "143404.597000", "143404.600000", "143404.602000", "143404.602000", "143404.605000", "143404.607000", "143444.570000", "143444.573000", "143444.575000", "143444.578000", "143444.580000", "143444.580000", "143444.583000", "143444.585000", "143444.588000", "143444.588000", "143444.590000", "143444.593000", "143444.595000", "143444.595000", "143444.598000", "143444.600000", "143444.603000", "143444.605000", "143444.605000", "143444.608000", "143456.841000", "143456.843000", "143456.846000", "143456.846000", "143456.848000", "143456.851000", "143456.853000"],
      "InstanceCreationTime": ["142544.575000", "142544.577000", "142544.580000", "142544.582000", "142544.585000", "142544.585000", "142544.587000", "142544.590000", "142544.592000", "142544.592000", "142544.595000", "142544.597000", "142544.600000", "142544.610000", "142544.615000", "142544.620000", "142544.622000", "142544.625000", "142544.627000", "142544.627000", "142544.630000", "142544.632000", "142544.635000", "142624.570000", "142624.573000", "142624.575000", "142624.578000", "142624.580000", "142624.580000", "142624.583000", "142624.585000", "142624.588000", "142624.588000", "142624.590000", "142624.593000", "142624.595000", "142624.595000", "142624.598000", "142624.600000", "142624.603000", "142624.603000", "142624.605000", "142624.608000", "142704.571000", "142704.573000", "142704.576000", "142704.578000", "142704.581000", "142704.581000", "142704.583000", "142704.586000", "142704.588000", "142704.588000", "142704.591000", "142704.593000", "142704.596000", "142704.596000", "142704.598000", "142704.601000", "142704.603000", "142704.603000", "142704.606000", "142704.608000", "142744.571000", "142744.574000", "142744.576000", "142744.579000", "142744.581000", "142744.581000", "142744.584000", "142744.586000", "142744.589000", "142744.589000", "142744.591000", "142744.594000", "142744.596000", "142744.596000", "142744.599000", "142744.601000", "142744.604000", "142744.604000", "142744.606000", "142744.609000", "142824.570000", "142824.572000", "142824.575000", "142824.577000", "142824.580000", "142824.580000", "142824.582000", "142824.585000", "142824.587000", "142824.587000", "142824.590000", "142824.592000", "142824.595000", "142824.595000", "142824.597000", "142824.600000", "142824.602000", "142824.602000", "142824.605000", "142824.607000", "142904.570000", "142904.573000", "142904.575000", "142904.578000", "142904.578000", "142904.580000", "142904.583000", "142904.585000", "142904.585000", "142904.603000", "142904.605000", "142904.608000", "142904.608000", "142904.610000", "142904.613000", "142904.615000", "142904.615000", "142904.618000", "142904.620000", "142904.623000", "142944.571000", "142944.573000", "142944.576000", "142944.578000", "142944.581000", "142944.581000", "142944.583000", "142944.586000", "142944.588000", "142944.588000", "142944.591000", "142944.593000", "142944.596000", "142944.596000", "142944.598000", "142944.601000", "142944.603000", "142944.603000", "142944.606000", "142944.608000", "143024.571000", "143024.574000", "143024.576000", "143024.579000", "143024.581000", "143024.581000", "143024.584000", "143024.586000", "143024.589000", "143024.589000", "143024.591000", "143024.594000", "143024.596000", "143024.596000", "143024.599000", "143024.601000", "143024.604000", "143024.604000", "143024.606000", "143024.609000", "143104.569000", "143104.572000", "143104.574000", "143104.577000", "143104.579000", "143104.579000", "143104.582000", "143104.584000", "143104.587000", "143104.587000", "143104.589000", "143104.592000", "143104.594000", "143104.597000", "143104.597000", "143104.599000", "143104.602000", "143104.604000", "143104.604000", "143104.607000", "143124.570000", "143124.572000", "143124.575000", "143124.577000", "143124.580000", "143124.580000", "143124.582000", "143124.585000", "143124.587000", "143124.587000", "143204.570000", "143204.573000", "143204.575000", "143204.578000", "143204.580000", "143204.580000", "143204.583000", "143204.585000", "143204.588000", "143204.588000", "143204.590000", "143204.593000", "143204.595000", "143204.595000", "143204.598000", "143204.600000", "143204.603000", "143204.610000", "143204.613000", "143204.613000", "143244.571000", "143244.574000", "143244.576000", "143244.579000", "143244.581000", "143244.581000", "143244.584000", "143244.586000", "143244.589000", "143244.589000", "143244.591000", "143244.594000", "143244.596000", "143244.596000", "143244.599000", "143244.601000", "143244.604000", "143244.604000", "143244.606000", "143244.609000", "143324.572000", "143324.574000", "143324.577000", "143324.579000", "143324.582000", "143324.582000", "143324.584000", "143324.587000", "143324.589000", "143324.589000", "143324.592000", "143324.594000", "143324.597000", "143324.597000", "143324.599000", "143324.602000", "143324.604000", "143324.604000", "143324.607000", "143324.609000", "143404.570000", "143404.572000", "143404.575000", "143404.577000", "143404.580000", "143404.580000", "143404.582000", "143404.585000", "143404.587000", "143404.587000", "143404.590000", "143404.592000", "143404.595000", "143404.595000", "143404.597000", "143404.600000", "143404.602000", "143404.602000", "143404.605000", "143404.607000", "143444.570000", "143444.573000", "143444.575000", "143444.578000", "143444.580000", "143444.580000", "143444.583000", "143444.585000", "143444.588000", "143444.588000", "143444.590000", "143444.593000", "143444.595000", "143444.595000", "143444.598000", "143444.600000", "143444.603000", "143444.605000", "143444.605000", "143444.608000", "143456.841000", "143456.843000", "143456.846000", "143456.846000", "143456.848000", "143456.851000", "143456.853000"],
      "InstanceNumber": [1, 2, 3, 4, 5, 6, 7, 8, 9, 10, 11, 12, 13, 14, 15, 16, 17, 18, 19, 20, 21, 22, 23, 24, 25, 26, 27, 28, 29, 30, 31, 32, 33, 34, 35, 36, 37, 38, 39, 40, 41, 42, 43, 44, 45, 46, 47, 48, 49, 50, 51, 52, 53, 54, 55, 56, 57, 58, 59, 60, 61, 62, 63, 64, 65, 66, 67, 68, 69, 70, 71, 72, 73, 74, 75, 76, 77, 78, 79, 80, 81, 82, 83, 84, 85, 86, 87, 88, 89, 90, 91, 92, 93, 94, 95, 96, 97, 98, 99, 100, 101, 102, 103, 104, 105, 106, 107, 108, 109, 110, 111, 112, 113, 114, 115, 116, 117, 118, 119, 120, 121, 122, 123, 124, 125, 126, 127, 128, 129, 130, 131, 132, 133, 134, 135, 136, 137, 138, 139, 140, 141, 142, 143, 144, 145, 146, 147, 148, 149, 150, 151, 152, 153, 154, 155, 156, 157, 158, 159, 160, 161, 162, 163, 164, 165, 166, 167, 168, 169, 170, 171, 172, 173, 174, 175, 176, 177, 178, 179, 180, 181, 182, 183, 184, 185, 186, 187, 188, 189, 190, 191, 192, 193, 194, 195, 196, 197, 198, 199, 200, 201, 202, 203, 204, 205, 206, 207, 208, 209, 210, 211, 212, 213, 214, 215, 216, 217, 218, 219, 220, 221, 222, 223, 224, 225, 226, 227, 228, 229, 230, 231, 232, 233, 234, 235, 236, 237, 238, 239, 240, 241, 242, 243, 244, 245, 246, 247, 248, 249, 250, 251, 252, 253, 254, 255, 256, 257, 258, 259, 260, 261, 262, 263, 264, 265, 266, 267, 268, 269, 270, 271, 272, 273, 274, 275, 276, 277, 278, 279, 280, 281, 282, 283, 284, 285, 286, 287, 288, 289, 290, 291, 292, 293, 294, 295, 296, 297, 298, 299, 300],
      "LargestImagePixelValue": [1266, 1685, 1239, 1201, 1213, 1161, 1352, 1209, 1227, 1191, 1536, 1450, 1194, 1168, 1178, 1192, 1459, 1184, 1167, 1156, 1651, 1448, 1390, 1699, 1171, 1157, 1285, 1183, 1180, 1174, 1196, 1326, 1783, 1230, 1239, 1438, 1260, 1761, 1218, 1171, 1459, 1211, 1210, 1209, 1295, 1187, 1199, 1199, 1471, 1188, 1196, 1206, 1188, 1232, 1301, 1191, 1316, 1188, 1410, 1534, 1261, 1178, 1627, 1180, 1384, 1217, 1174, 1448, 1199, 1229, 1754, 1220, 1176, 1789, 1184, 1295, 1306, 1177, 1458, 1394, 1181, 1442, 1221, 1205, 1649, 1203, 1203, 1489, 1178, 1284, 1232, 1221, 1217, 1180, 1531, 1642, 1192, 1191, 1697, 1194, 1214, 1201, 1191, 1210, 1644, 1178, 1178, 1506, 1219, 1200, 1209, 1476, 1459, 1329, 1672, 1413, 1545, 1335, 1201, 1225, 1289, 1769, 1233, 1253, 1208, 1629, 1439, 1209, 1284, 1208, 1216, 1584, 1204, 1285, 1253, 1417, 1200, 1680, 1588, 1223, 1205, 1377, 1202, 1240, 1431, 1210, 1210, 1408, 1216, 1260, 1705, 1564, 1436, 1378, 1223, 1215, 1350, 1235, 1266, 1219, 1245, 1246, 1237, 1680, 1263, 1249, 1228, 1209, 1326, 1517, 1232, 1224, 1604, 1796, 1346, 1479, 1685, 1209, 1378, 1316, 1256, 1287, 1234, 1480, 1205, 1570, 1235, 1234, 1413, 1209, 1301, 1682, 1225, 1224, 1483, 1212, 1623, 1557, 1240, 1225, 1368, 1193, 1325, 1250, 1205, 1222, 1191, 1339, 1324, 1223, 1299, 1222, 1191, 1220, 1366, 1756, 1283, 1238, 1210, 1204, 1591, 1211, 1503, 1186, 1258, 1260, 1217, 1227, 1453, 1445, 1239, 1609, 1195, 1192, 1769, 1241, 1251, 1327, 1521, 1324, 1354, 1207, 1202, 1214, 1544, 1319, 1241, 1238, 1270, 1192, 1632, 1525, 1242, 1210, 1213, 1482, 1470, 1258, 1247, 1256, 1233, 1371, 1266, 1234, 1245, 1245, 1238, 1453, 1400, 1263, 1341, 1227, 1244, 1226, 1511, 1494, 1303, 1583, 1289, 1234, 1247, 1383, 1294, 1308, 1268, 1235, 1248, 1229, 1256, 1309, 1353, 1457, 1246, 1236, 1236, 1228, 1285, 1392, 1289, 1295],
      "WindowCenter": [524.0, 527.0, 520.0, 518.0, 519.0, 518.0, 520.0, 519.0, 518.0, 519.0, 521.0, 522.0, 518.0, 517.0, 520.0, 519.0, 525.0, 522.0, 520.0, 518.0, 523.0, 523.0, 520.0, 524.0, 518.0, 516.0, 522.0, 520.0, 519.0, 521.0, 523.0, 522.0, 527.0, 521.0, 519.0, 523.0, 520.0, 526.0, 521.0, 518.0, 524.0, 519.0, 519.0, 520.0, 524.0, 520.0, 520.0, 520.0, 526.0, 520.0, 520.0, 522.0, 522.0, 522.0, 525.0, 522.0, 522.0, 522.0, 523.0, 524.0, 523.0, 521.0, 526.0, 521.0, 524.0, 522.0, 521.0, 525.0, 524.0, 522.0, 528.0, 524.0, 521.0, 528.0, 521.0, 522.0, 525.0, 522.0, 524.0, 525.0, 521.0, 524.0, 523.0, 520.0, 526.0, 522.0, 522.0, 527.0, 523.0, 523.0, 524.0, 523.0, 524.0, 524.0, 526.0, 529.0, 523.0, 522.0, 528.0, 523.0, 523.0, 523.0, 522.0, 523.0, 530.0, 524.0, 522.0, 527.0, 526.0, 524.0, 527.0, 529.0, 527.0, 525.0, 529.0, 527.0, 526.0, 526.0, 523.0, 525.0, 525.0, 530.0, 525.0, 524.0, 523.0, 527.0, 527.0, 524.0, 527.0, 524.0, 524.0, 530.0, 527.0, 526.0, 526.0, 529.0, 524.0, 528.0, 529.0, 525.0, 524.0, 527.0, 526.0, 525.0, 530.0, 529.0, 526.0, 527.0, 525.0, 526.0, 530.0, 529.0, 527.0, 527.0, 526.0, 526.0, 528.0, 528.0, 527.0, 526.0, 527.0, 528.0, 527.0, 531.0, 527.0, 526.0, 528.0, 529.0, 529.0, 532.0, 527.0, 527.0, 530.0, 533.0, 528.0, 528.0, 531.0, 525.0, 527.0, 527.0, 526.0, 528.0, 527.0, 530.0, 526.0, 531.0, 527.0, 527.0, 530.0, 528.0, 528.0, 532.0, 527.0, 527.0, 531.0, 527.0, 531.0, 531.0, 526.0, 526.0, 530.0, 526.0, 527.0, 528.0, 526.0, 528.0, 526.0, 528.0, 530.0, 528.0, 528.0, 528.0, 528.0, 530.0, 530.0, 534.0, 530.0, 528.0, 527.0, 527.0, 534.0, 528.0, 531.0, 527.0, 529.0, 530.0, 528.0, 529.0, 531.0, 531.0, 529.0, 533.0, 528.0, 527.0, 533.0, 529.0, 529.0, 530.0, 532.0, 529.0, 530.0, 527.0, 528.0, 528.0, 532.0, 531.0, 529.0, 528.0, 530.0, 529.0, 532.0, 532.0, 529.0, 529.0, 529.0, 533.0, 534.0, 530.0, 529.0, 530.0, 529.0, 531.0, 530.0, 530.0, 530.0, 530.0, 530.0, 532.0, 533.0, 530.0, 532.0, 529.0, 530.0, 531.0, 534.0, 533.0, 530.0, 533.0, 529.0, 529.0, 529.0, 530.0, 530.0, 530.0, 531.0, 532.0, 530.0, 530.0, 530.0, 532.0, 532.0, 533.0, 531.0, 530.0, 530.0, 530.0, 530.0, 533.0, 530.0, 530.0],
      "WindowWidth": [1103.0, 1106.0, 1094.0, 1089.0, 1092.0, 1089.0, 1093.0, 1091.0, 1090.0, 1091.0, 1095.0, 1098.0, 1090.0, 1089.0, 1094.0, 1092.0, 1103.0, 1097.0, 1093.0, 1090.0, 1097.0, 1099.0, 1093.0, 1099.0, 1089.0, 1087.0, 1098.0, 1093.0, 1092.0, 1096.0, 1099.0, 1097.0, 1105.0, 1097.0, 1092.0, 1099.0, 1094.0, 1104.0, 1095.0, 1090.0, 1101.0, 1092.0, 1091.0, 1093.0, 1102.0, 1094.0, 1094.0, 1094.0, 1105.0, 1095.0, 1095.0, 1099.0, 1098.0, 1097.0, 1105.0, 1098.0, 1099.0, 1098.0, 1099.0, 1101.0, 1100.0, 1095.0, 1105.0, 1097.0, 1103.0, 1098.0, 1097.0, 1103.0, 1102.0, 1098.0, 1109.0, 1102.0, 1096.0, 1108.0, 1097.0, 1099.0, 1104.0, 1098.0, 1101.0, 1104.0, 1097.0, 1102.0, 1101.0, 1095.0, 1105.0, 1098.0, 1097.0, 1107.0, 1100.0, 1100.0, 1103.0, 1100.0, 1102.0, 1103.0, 1105.0, 1112.0, 1101.0, 1098.0, 1109.0, 1101.0, 1101.0, 1101.0, 1100.0, 1101.0, 1114.0, 1104.0, 1098.0, 1108.0, 1106.0, 1103.0, 1108.0, 1112.0, 1108.0, 1105.0, 1111.0, 1107.0, 1106.0, 1106.0, 1101.0, 1105.0, 1103.0, 1114.0, 1105.0, 1103.0, 1101.0, 1107.0, 1109.0, 1102.0, 1108.0, 1103.0, 1103.0, 1114.0, 1109.0, 1108.0, 1107.0, 1111.0, 1104.0, 1110.0, 1111.0, 1106.0, 1103.0, 1108.0, 1107.0, 1106.0, 1115.0, 1113.0, 1107.0, 1108.0, 1105.0, 1107.0, 1113.0, 1113.0, 1108.0, 1108.0, 1108.0, 1106.0, 1111.0, 1111.0, 1109.0, 1107.0, 1109.0, 1111.0, 1109.0, 1115.0, 1110.0, 1107.0, 1111.0, 1113.0, 1113.0, 1119.0, 1110.0, 1108.0, 1113.0, 1119.0, 1110.0, 1110.0, 1117.0, 1106.0, 1108.0, 1110.0, 1108.0, 1111.0, 1108.0, 1115.0, 1108.0, 1116.0, 1110.0, 1109.0, 1114.0, 1111.0, 1111.0, 1117.0, 1109.0, 1108.0, 1115.0, 1110.0, 1116.0, 1117.0, 1108.0, 1107.0, 1114.0, 1107.0, 1109.0, 1112.0, 1108.0, 1111.0, 1108.0, 1112.0, 1115.0, 1110.0, 1112.0, 1112.0, 1111.0, 1115.0, 1115.0, 1122.0, 1115.0, 1112.0, 1110.0, 1109.0, 1122.0, 1112.0, 1116.0, 1110.0, 1113.0, 1115.0, 1112.0, 1114.0, 1116.0, 1117.0, 1113.0, 1119.0, 1113.0, 1110.0, 1120.0, 1113.0, 1113.0, 1114.0, 1118.0, 1112.0, 1115.0, 1110.0, 1113.0, 1112.0, 1118.0, 1118.0, 1113.0, 1112.0, 1116.0, 1113.0, 1117.0, 1119.0, 1113.0, 1113.0, 1114.0, 1120.0, 1122.0, 1117.0, 1114.0, 1116.0, 1113.0, 1117.0, 1116.0, 1116.0, 1115.0, 1115.0, 1114.0, 1119.0, 1121.0, 1116.0, 1119.0, 1114.0, 1116.0, 1119.0, 1121.0, 1121.0, 1116.0, 1120.0, 1114.0, 1113.0, 1114.0, 1115.0, 1116.0, 1116.0, 1118.0, 1119.0, 1116.0, 1117.0, 1115.0, 1120.0, 1118.0, 1122.0, 1118.0, 1115.0, 1116.0, 1115.0, 1116.0, 1120.0, 1115.0, 1115.0]
    },
    "slices": {}
  }
}