{
  "AcquisitionMatrixPE": 74,
  "AcquisitionNumber": 1,
  "AcquisitionTime": "10:01:26.125000",
  "BandwidthPerPixelPhaseEncode": 27.579,
  "BaseResolution": 74,
  "BodyPartExamined": "HEAD",
  "CoilString": "t:HEA;HEP",
  "ConversionSoftware": "dcm2niix",
  "ConversionSoftwareVersion": "v1.0.20190410  GCC6.3.0",
  "DerivedVendorReportedEchoSpacing": 0.000489993,
  "DeviceSerialNumber": "35256",
  "DwellTime": 2.4e-06,
  "EchoTime": 0.03,
  "EffectiveEchoSpacing": 0.000489993,
  "FlipAngle": 70,
  "ImageOrientationPatientDICOM": [1, 0, 0, 0, 1, 0],
  "ImageType": [
    "ORIGINAL",
    "PRIMARY",
    "M",
    "ND",
    "NORM",
    "MOSAIC"
],
  "ImagingFrequency": 123.223,
  "InPlanePhaseEncodingDirectionDICOM": "COL",
  "InstitutionAddress": "East_Lee_St._2907_Greensboro_NC_US_27401",
  "InstitutionName": "JSNN",
  "InstitutionalDepartmentName": "Department",
  "MRAcquisitionType": "2D",
  "MagneticFieldStrength": 3,
  "Manufacturer": "Siemens",
  "ManufacturersModelName": "TrioTim",
  "Modality": "MR",
  "PartialFourier": 1,
  "PatientPosition": "HFS",
  "PercentPhaseFOV": 100,
  "PhaseEncodingDirection": "j-",
  "PhaseEncodingSteps": 74,
  "PhaseResolution": 1,
  "PixelBandwidth": 2815,
  "ProcedureStepDescription": "head_Cassidy",
  "ProtocolName": "RestingState",
  "PulseSequenceDetails": "%SiemensSeq%_ep2d_bold",
  "ReceiveCoilName": "HeadMatrix",
  "ReconMatrixPE": 74,
  "RepetitionTime": 2,
  "SAR": 0.144081,
  "ScanOptions": "FS",
  "ScanningSequence": "EP",
  "SequenceName": "_epfid2d1_74",
  "SequenceVariant": "SK",
  "SeriesDescription": "RestingState",
  "SeriesNumber": 3,
  "ShimSetting": [1333, 10528, -8855, 274, 54, -1057, -425, 38],
  "SliceThickness": 4,
  "SliceTiming": [1.9425, 1.88, 1.8175, 1.755, 1.6925, 1.63, 1.5675, 1.505, 1.4425, 1.38, 1.3175, 1.2525, 1.19, 1.1275, 1.065, 1.0025, 0.94, 0.8775, 0.815, 0.7525, 0.69, 0.6275, 0.5625, 0.5, 0.4375, 0.375, 0.3125, 0.25, 0.1875, 0.125, 0.0625, 0],
  "SoftwareVersions": "syngo_MR_B19",
  "SpacingBetweenSlices": 4,
  "StationName": "JSNNMRI",
  "TaskName": "rest",
  "TotalReadoutTime": 0.0357695,
  "TxRefAmp": 307.589,
  "dcmmeta_affine": [
    [-2.972972869873047, 0.0, 0.0, 105.18071746826172],
    [0.0, 2.972972869873047, 0.0, -105.05351257324219],
    [0.0, 0.0, 3.999999761581421, -81.8958511352539],
    [0.0, 0.0, 0.0, 1.0]
],
  "dcmmeta_reorient_transform": [
    [0.0, -1.0, 0.0, 73.0],
    [1.0, 0.0, 0.0, 0.0],
    [0.0, 0.0, 1.0, 0.0],
    [0.0, 0.0, 0.0, 1.0]
],
  "dcmmeta_shape": [74, 74, 32, 300],
  "dcmmeta_slice_dim": 2,
  "dcmmeta_version": 0.6,
  "global": {
    "const": {
      "AcquisitionMatrix": [74, 0, 0, 74],
      "AngioFlag": "N",
      "BitsAllocated": 16,
      "BitsStored": 12,
      "BodyPartExamined": "HEAD",
      "Columns": 444,
      "EchoNumbers": 1,
      "EchoTime": 30.0,
      "EchoTrainLength": 1,
      "FlipAngle": 70.0,
      "HighBit": 11,
      "ImageOrientationPatient": [1.0, 0.0, 0.0, 0.0, 1.0, 0.0],
      "ImagePositionPatient": [-655.18069982529, -661.97348856926, -81.895851135254],
      "ImageType": [
        "ORIGINAL",
        "PRIMARY",
        "M",
        "ND",
        "NORM",
        "MOSAIC"
],
      "ImagedNucleus": "1H",
      "ImagingFrequency": 123.223154,
      "InPlanePhaseEncodingDirection": "COL",
      "MRAcquisitionType": "2D",
      "MagneticFieldStrength": 3.0,
      "Manufacturer": "SIEMENS",
      "ManufacturerModelName": "TrioTim",
      "Modality": "MR",
      "NumberOfAverages": 1.0,
      "NumberOfPhaseEncodingSteps": 74,
      "PercentPhaseFieldOfView": 100.0,
      "PercentSampling": 100.0,
      "PerformedProcedureStepStartTime": "091420.843000",
      "PhotometricInterpretation": "MONOCHROME2",
      "PixelBandwidth": 2815.0,
      "PixelRepresentation": 0,
      "PixelSpacing": [2.972972869873, 2.972972869873],
      "ProtocolName": "RestingState",
      "RepetitionTime": 2000.0,
      "Rows": 444,
      "SAR": 0.14408093255283,
      "SamplesPerPixel": 1,
      "ScanOptions": "FS",
      "ScanningSequence": "EP",
      "SequenceName": "*epfid2d1_74",
      "SequenceVariant": "SK",
      "SeriesDescription": "RestingState",
      "SeriesNumber": 3,
      "SeriesTime": "100219.546000",
      "SliceLocation": -81.895851135254,
      "SliceThickness": 4.0,
      "SmallestImagePixelValue": 0,
      "SoftwareVersions": "syngo MR B19",
      "SpacingBetweenSlices": 3.9999998769452,
      "SpecificCharacterSet": "ISO_IR 100",
      "StudyID": "1",
      "StudyTime": "091420.812000",
      "TransmitCoilName": "Body",
      "VariableFlipAngleFlag": "N",
      "WindowCenterWidthExplanation": "Algo1",
      "dBdt": 0.0},
    "slices": {}
  },
  "time": {
    "samples": {
      "AcquisitionNumber": [1, 2, 3, 4, 5, 6, 7, 8, 9, 10, 11, 12, 13, 14, 15, 16, 17, 18, 19, 20, 21, 22, 23, 24, 25, 26, 27, 28, 29, 30, 31, 32, 33, 34, 35, 36, 37, 38, 39, 40, 41, 42, 43, 44, 45, 46, 47, 48, 49, 50, 51, 52, 53, 54, 55, 56, 57, 58, 59, 60, 61, 62, 63, 64, 65, 66, 67, 68, 69, 70, 71, 72, 73, 74, 75, 76, 77, 78, 79, 80, 81, 82, 83, 84, 85, 86, 87, 88, 89, 90, 91, 92, 93, 94, 95, 96, 97, 98, 99, 100, 101, 102, 103, 104, 105, 106, 107, 108, 109, 110, 111, 112, 113, 114, 115, 116, 117, 118, 119, 120, 121, 122, 123, 124, 125, 126, 127, 128, 129, 130, 131, 132, 133, 134, 135, 136, 137, 138, 139, 140, 141, 142, 143, 144, 145, 146, 147, 148, 149, 150, 151, 152, 153, 154, 155, 156, 157, 158, 159, 160, 161, 162, 163, 164, 165, 166, 167, 168, 169, 170, 171, 172, 173, 174, 175, 176, 177, 178, 179, 180, 181, 182, 183, 184, 185, 186, 187, 188, 189, 190, 191, 192, 193, 194, 195, 196, 197, 198, 199, 200, 201, 202, 203, 204, 205, 206, 207, 208, 209, 210, 211, 212, 213, 214, 215, 216, 217, 218, 219, 220, 221, 222, 223, 224, 225, 226, 227, 228, 229, 230, 231, 232, 233, 234, 235, 236, 237, 238, 239, 240, 241, 242, 243, 244, 245, 246, 247, 248, 249, 250, 251, 252, 253, 254, 255, 256, 257, 258, 259, 260, 261, 262, 263, 264, 265, 266, 267, 268, 269, 270, 271, 272, 273, 274, 275, 276, 277, 278, 279, 280, 281, 282, 283, 284, 285, 286, 287, 288, 289, 290, 291, 292, 293, 294, 295, 296, 297, 298, 299, 300],
      "AcquisitionTime": ["100126.125000", "100128.135000", "100130.142500", "100132.150000", "100134.157500", "100136.167500", "100138.175000", "100140.182500", "100142.190000", "100144.197500", "100146.207500", "100148.215000", "100150.222500", "100152.230000", "100154.237500", "100156.247500", "100158.255000", "100200.262500", "100202.270000", "100204.280000", "100206.287500", "100208.295000", "100210.302500", "100212.310000", "100214.320000", "100216.327500", "100218.335000", "100220.342500", "100222.350000", "100224.360000", "100226.367500", "100228.375000", "100230.382500", "100232.390000", "100234.400000", "100236.407500", "100238.415000", "100240.422500", "100242.432500", "100244.440000", "100246.447500", "100248.455000", "100250.462500", "100252.472500", "100254.480000", "100256.487500", "100258.495000", "100300.502500", "100302.512500", "100304.520000", "100306.527500", "100308.535000", "100310.545000", "100312.552500", "100314.560000", "100316.567500", "100318.575000", "100320.585000", "100322.592500", "100324.600000", "100326.607500", "100328.615000", "100330.625000", "100332.632500", "100334.640000", "100336.647500", "100338.657500", "100340.665000", "100342.672500", "100344.680000", "100346.687500", "100348.697500", "100350.705000", "100352.712500", "100354.720000", "100356.727500", "100358.737500", "100400.745000", "100402.752500", "100404.760000", "100406.767500", "100408.777500", "100410.785000", "100412.792500", "100414.800000", "100416.810000", "100418.817500", "100420.825000", "100422.832500", "100424.840000", "100426.850000", "100428.857500", "100430.865000", "100432.872500", "100434.880000", "100436.890000", "100438.897500", "100440.905000", "100442.912500", "100444.922500", "100446.930000", "100448.937500", "100450.945000", "100452.952500", "100454.962500", "100456.970000", "100458.977500", "100500.985000", "100502.992500", "100505.002500", "100507.010000", "100509.017500", "100511.025000", "100513.035000", "100515.042500", "100517.050000", "100519.057500", "100521.065000", "100523.075000", "100525.082500", "100527.090000", "100529.097500", "100531.105000", "100533.115000", "100535.122500", "100537.130000", "100539.137500", "100541.147500", "100543.155000", "100545.162500", "100547.170000", "100549.177500", "100551.187500", "100553.195000", "100555.202500", "100557.210000", "100559.217500", "100601.227500", "100603.235000", "100605.242500", "100607.250000", "100609.257500", "100611.267500", "100613.275000", "100615.282500", "100617.290000", "100619.300000", "100621.307500", "100623.315000", "100625.322500", "100627.330000", "100629.340000", "100631.347500", "100633.355000", "100635.362500", "100637.370000", "100639.380000", "100641.387500", "100643.395000", "100645.402500", "100647.412500", "100649.420000", "100651.427500", "100653.435000", "100655.442500", "100657.452500", "100659.460000", "100701.467500", "100703.475000", "100705.482500", "100707.492500", "100709.500000", "100711.507500", "100713.515000", "100715.525000", "100717.532500", "100719.540000", "100721.547500", "100723.555000", "100725.565000", "100727.572500", "100729.580000", "100731.587500", "100733.595000", "100735.605000", "100737.612500", "100739.620000", "100741.627500", "100743.635000", "100745.645000", "100747.652500", "100749.660000", "100751.667500", "100753.677500", "100755.685000", "100757.692500", "100759.700000", "100801.707500", "100803.717500", "100805.725000", "100807.732500", "100809.740000", "100811.747500", "100813.757500", "100815.765000", "100817.772500", "100819.780000", "100821.790000", "100823.797500", "100825.805000", "100827.812500", "100829.820000", "100831.830000", "100833.837500", "100835.845000", "100837.852500", "100839.860000", "100841.870000", "100843.877500", "100845.885000", "100847.892500", "100849.902500", "100851.910000", "100853.917500", "100855.925000", "100857.932500", "100859.942500", "100901.950000", "100903.957500", "100905.965000", "100907.972500", "100909.982500", "100911.990000", "100913.997500", "100916.005000", "100918.012500", "100920.022500", "100922.030000", "100924.037500", "100926.045000", "100928.055000", "100930.062500", "100932.070000", "100934.077500", "100936.085000", "100938.095000", "100940.102500", "100942.110000", "100944.117500", "100946.125000", "100948.135000", "100950.142500", "100952.150000", "100954.157500", "100956.167500", "100958.175000", "101000.182500", "101002.190000", "101004.197500", "101006.207500", "101008.215000", "101010.222500", "101012.230000", "101014.237500", "101016.247500", "101018.255000", "101020.262500", "101022.270000", "101024.280000", "101026.287500", "101028.295000", "101030.302500", "101032.310000", "101034.320000", "101036.327500", "101038.335000", "101040.342500", "101042.350000", "101044.360000", "101046.367500", "101048.375000", "101050.382500", "101052.390000", "101054.400000", "101056.407500", "101058.415000", "101100.422500", "101102.432500", "101104.440000", "101106.447500", "101108.455000", "101110.462500", "101112.472500", "101114.480000", "101116.487500", "101118.495000", "101120.502500", "101122.512500", "101124.520000", "101126.527500"],
      "ContentTime": ["100219.578000", "100219.578000", "100219.578000", "100219.578000", "100219.578000", "100219.578000", "100219.578000", "100219.593000", "100219.593000", "100219.593000", "100219.593000", "100219.593000", "100219.593000", "100219.593000", "100219.593000", "100219.609000", "100219.609000", "100219.609000", "100219.609000", "100219.609000", "100219.625000", "100219.625000", "100219.625000", "100219.625000", "100219.625000", "100219.640000", "100259.546000", "100259.562000", "100259.562000", "100259.562000", "100259.562000", "100259.562000", "100259.562000", "100259.562000", "100259.578000", "100259.578000", "100259.578000", "100259.578000", "100259.578000", "100259.593000", "100259.593000", "100259.593000", "100259.593000", "100259.593000", "100259.593000", "100259.609000", "100339.546000", "100339.546000", "100339.546000", "100339.562000", "100339.562000", "100339.562000", "100339.562000", "100339.562000", "100339.562000", "100339.562000", "100339.578000", "100339.578000", "100339.578000", "100339.578000", "100339.578000", "100339.578000", "100339.578000", "100339.578000", "100339.593000", "100339.593000", "100419.546000", "100419.546000", "100419.546000", "100419.562000", "100419.562000", "100419.562000", "100419.578000", "100419.578000", "100419.578000", "100419.578000", "100419.578000", "100419.578000", "100419.578000", "100419.593000", "100419.593000", "100419.593000", "100419.593000", "100419.593000", "100419.609000", "100419.609000", "100459.546000", "100459.546000", "100459.546000", "100459.562000", "100459.562000", "100459.562000", "100459.562000", "100459.562000", "100459.562000", "100459.578000", "100459.578000", "100459.578000", "100459.578000", "100459.578000", "100459.593000", "100459.593000", "100459.593000", "100459.593000", "100459.593000", "100459.593000", "100539.546000", "100539.546000", "100539.546000", "100539.562000", "100539.562000", "100539.562000", "100539.562000", "100539.562000", "100539.562000", "100539.562000", "100539.578000", "100539.578000", "100539.578000", "100539.578000", "100539.578000", "100539.578000", "100539.578000", "100539.578000", "100539.593000", "100539.593000", "100619.546000", "100619.546000", "100619.546000", "100619.562000", "100619.562000", "100619.562000", "100619.562000", "100619.562000", "100619.578000", "100619.578000", "100619.578000", "100619.578000", "100619.578000", "100619.578000", "100619.578000", "100619.593000", "100619.593000", "100619.593000", "100619.593000", "100619.593000", "100659.546000", "100659.546000", "100659.546000", "100659.562000", "100659.562000", "100659.562000", "100659.562000", "100659.578000", "100659.578000", "100659.578000", "100659.593000", "100659.593000", "100659.593000", "100659.593000", "100659.593000", "100659.593000", "100659.625000", "100659.625000", "100659.625000", "100659.625000", "100739.546000", "100739.562000", "100739.562000", "100739.578000", "100739.578000", "100739.578000", "100739.578000", "100739.578000", "100739.578000", "100739.578000", "100739.593000", "100739.593000", "100739.593000", "100739.593000", "100739.593000", "100739.609000", "100739.609000", "100739.609000", "100739.609000", "100739.609000", "100819.546000", "100819.562000", "100819.562000", "100819.562000", "100819.562000", "100819.562000", "100819.562000", "100819.562000", "100819.578000", "100819.578000", "100819.578000", "100819.578000", "100819.578000", "100819.593000", "100819.593000", "100819.593000", "100819.593000", "100819.593000", "100819.593000", "100819.593000", "100859.546000", "100859.546000", "100859.562000", "100859.562000", "100859.562000", "100859.562000", "100859.562000", "100859.562000", "100859.562000", "100859.562000", "100859.578000", "100859.578000", "100859.578000", "100859.578000", "100859.578000", "100859.578000", "100859.578000", "100859.593000", "100859.593000", "100859.593000", "100939.546000", "100939.546000", "100939.546000", "100939.562000", "100939.562000", "100939.562000", "100939.562000", "100939.578000", "100939.578000", "100939.578000", "100939.578000", "100939.578000", "100939.578000", "100939.578000", "100939.578000", "100939.593000", "100939.593000", "100939.593000", "100939.609000", "100939.609000", "101019.546000", "101019.562000", "101019.562000", "101019.562000", "101019.562000", "101019.562000", "101019.562000", "101019.562000", "101019.578000", "101019.578000", "101019.578000", "101019.578000", "101019.578000", "101019.578000", "101019.578000", "101019.578000", "101019.593000", "101019.593000", "101019.593000", "101019.593000", "101059.546000", "101059.546000", "101059.546000", "101059.562000", "101059.562000", "101059.562000", "101059.578000", "101059.578000", "101059.578000", "101059.578000", "101059.578000", "101059.578000", "101059.578000", "101059.578000", "101059.593000", "101059.593000", "101059.593000", "101059.593000", "101059.593000", "101059.593000", "101125.734000", "101125.734000", "101125.734000", "101125.750000", "101125.750000", "101125.750000", "101125.750000", "101125.750000", "101125.750000", "101125.750000", "101125.750000", "101125.765000", "101125.765000", "101125.765000"],
      "InstanceCreationTime": ["100219.578000", "100219.578000", "100219.578000", "100219.578000", "100219.578000", "100219.578000", "100219.578000", "100219.593000", "100219.593000", "100219.593000", "100219.593000", "100219.593000", "100219.593000", "100219.593000", "100219.593000", "100219.609000", "100219.609000", "100219.609000", "100219.609000", "100219.609000", "100219.625000", "100219.625000", "100219.625000", "100219.625000", "100219.625000", "100219.640000", "100259.546000", "100259.562000", "100259.562000", "100259.562000", "100259.562000", "100259.562000", "100259.562000", "100259.562000", "100259.578000", "100259.578000", "100259.578000", "100259.578000", "100259.578000", "100259.593000", "100259.593000", "100259.593000", "100259.593000", "100259.593000", "100259.593000", "100259.609000", "100339.546000", "100339.546000", "100339.546000", "100339.562000", "100339.562000", "100339.562000", "100339.562000", "100339.562000", "100339.562000", "100339.562000", "100339.578000", "100339.578000", "100339.578000", "100339.578000", "100339.578000", "100339.578000", "100339.578000", "100339.578000", "100339.593000", "100339.593000", "100419.546000", "100419.546000", "100419.546000", "100419.562000", "100419.562000", "100419.562000", "100419.578000", "100419.578000", "100419.578000", "100419.578000", "100419.578000", "100419.578000", "100419.578000", "100419.593000", "100419.593000", "100419.593000", "100419.593000", "100419.593000", "100419.609000", "100419.609000", "100459.546000", "100459.546000", "100459.546000", "100459.562000", "100459.562000", "100459.562000", "100459.562000", "100459.562000", "100459.562000", "100459.578000", "100459.578000", "100459.578000", "100459.578000", "100459.578000", "100459.593000", "100459.593000", "100459.593000", "100459.593000", "100459.593000", "100459.593000", "100539.546000", "100539.546000", "100539.546000", "100539.562000", "100539.562000", "100539.562000", "100539.562000", "100539.562000", "100539.562000", "100539.562000", "100539.578000", "100539.578000", "100539.578000", "100539.578000", "100539.578000", "100539.578000", "100539.578000", "100539.578000", "100539.593000", "100539.593000", "100619.546000", "100619.546000", "100619.546000", "100619.562000", "100619.562000", "100619.562000", "100619.562000", "100619.562000", "100619.578000", "100619.578000", "100619.578000", "100619.578000", "100619.578000", "100619.578000", "100619.578000", "100619.593000", "100619.593000", "100619.593000", "100619.593000", "100619.593000", "100659.546000", "100659.546000", "100659.546000", "100659.562000", "100659.562000", "100659.562000", "100659.562000", "100659.578000", "100659.578000", "100659.578000", "100659.593000", "100659.593000", "100659.593000", "100659.593000", "100659.593000", "100659.593000", "100659.625000", "100659.625000", "100659.625000", "100659.625000", "100739.546000", "100739.562000", "100739.562000", "100739.578000", "100739.578000", "100739.578000", "100739.578000", "100739.578000", "100739.578000", "100739.578000", "100739.593000", "100739.593000", "100739.593000", "100739.593000", "100739.593000", "100739.609000", "100739.609000", "100739.609000", "100739.609000", "100739.609000", "100819.546000", "100819.562000", "100819.562000", "100819.562000", "100819.562000", "100819.562000", "100819.562000", "100819.562000", "100819.578000", "100819.578000", "100819.578000", "100819.578000", "100819.578000", "100819.593000", "100819.593000", "100819.593000", "100819.593000", "100819.593000", "100819.593000", "100819.593000", "100859.546000", "100859.546000", "100859.562000", "100859.562000", "100859.562000", "100859.562000", "100859.562000", "100859.562000", "100859.562000", "100859.562000", "100859.578000", "100859.578000", "100859.578000", "100859.578000", "100859.578000", "100859.578000", "100859.578000", "100859.593000", "100859.593000", "100859.593000", "100939.546000", "100939.546000", "100939.546000", "100939.562000", "100939.562000", "100939.562000", "100939.562000", "100939.578000", "100939.578000", "100939.578000", "100939.578000", "100939.578000", "100939.578000", "100939.578000", "100939.578000", "100939.593000", "100939.593000", "100939.593000", "100939.609000", "100939.609000", "101019.546000", "101019.562000", "101019.562000", "101019.562000", "101019.562000", "101019.562000", "101019.562000", "101019.562000", "101019.578000", "101019.578000", "101019.578000", "101019.578000", "101019.578000", "101019.578000", "101019.578000", "101019.578000", "101019.593000", "101019.593000", "101019.593000", "101019.593000", "101059.546000", "101059.546000", "101059.546000", "101059.562000", "101059.562000", "101059.562000", "101059.578000", "101059.578000", "101059.578000", "101059.578000", "101059.578000", "101059.578000", "101059.578000", "101059.578000", "101059.593000", "101059.593000", "101059.593000", "101059.593000", "101059.593000", "101059.593000", "101125.734000", "101125.734000", "101125.734000", "101125.750000", "101125.750000", "101125.750000", "101125.750000", "101125.750000", "101125.750000", "101125.750000", "101125.750000", "101125.765000", "101125.765000", "101125.765000"],
      "InstanceNumber": [1, 2, 3, 4, 5, 6, 7, 8, 9, 10, 11, 12, 13, 14, 15, 16, 17, 18, 19, 20, 21, 22, 23, 24, 25, 26, 27, 28, 29, 30, 31, 32, 33, 34, 35, 36, 37, 38, 39, 40, 41, 42, 43, 44, 45, 46, 47, 48, 49, 50, 51, 52, 53, 54, 55, 56, 57, 58, 59, 60, 61, 62, 63, 64, 65, 66, 67, 68, 69, 70, 71, 72, 73, 74, 75, 76, 77, 78, 79, 80, 81, 82, 83, 84, 85, 86, 87, 88, 89, 90, 91, 92, 93, 94, 95, 96, 97, 98, 99, 100, 101, 102, 103, 104, 105, 106, 107, 108, 109, 110, 111, 112, 113, 114, 115, 116, 117, 118, 119, 120, 121, 122, 123, 124, 125, 126, 127, 128, 129, 130, 131, 132, 133, 134, 135, 136, 137, 138, 139, 140, 141, 142, 143, 144, 145, 146, 147, 148, 149, 150, 151, 152, 153, 154, 155, 156, 157, 158, 159, 160, 161, 162, 163, 164, 165, 166, 167, 168, 169, 170, 171, 172, 173, 174, 175, 176, 177, 178, 179, 180, 181, 182, 183, 184, 185, 186, 187, 188, 189, 190, 191, 192, 193, 194, 195, 196, 197, 198, 199, 200, 201, 202, 203, 204, 205, 206, 207, 208, 209, 210, 211, 212, 213, 214, 215, 216, 217, 218, 219, 220, 221, 222, 223, 224, 225, 226, 227, 228, 229, 230, 231, 232, 233, 234, 235, 236, 237, 238, 239, 240, 241, 242, 243, 244, 245, 246, 247, 248, 249, 250, 251, 252, 253, 254, 255, 256, 257, 258, 259, 260, 261, 262, 263, 264, 265, 266, 267, 268, 269, 270, 271, 272, 273, 274, 275, 276, 277, 278, 279, 280, 281, 282, 283, 284, 285, 286, 287, 288, 289, 290, 291, 292, 293, 294, 295, 296, 297, 298, 299, 300],
      "LargestImagePixelValue": [1320, 1512, 1286, 2131, 1305, 2151, 1585, 2132, 1876, 1840, 1577, 2107, 1333, 2028, 1312, 2118, 1398, 2277, 1357, 1383, 1476, 2020, 1816, 1355, 1614, 2252, 1652, 1281, 1715, 2233, 1313, 1620, 1880, 1355, 1191, 1698, 1384, 2058, 1594, 1740, 1493, 1855, 2087, 1664, 1792, 1791, 1343, 2290, 1234, 1217, 1274, 1469, 1334, 2221, 1447, 2127, 1534, 1936, 2269, 1313, 2267, 1346, 1829, 1801, 1296, 1625, 2237, 1841, 2212, 1636, 1994, 1911, 1226, 1872, 1424, 1230, 1354, 1986, 1218, 1944, 1866, 1497, 1450, 2044, 2168, 2246, 1621, 1449, 2091, 1473, 1820, 1661, 1410, 1632, 2293, 1269, 1906, 1386, 1977, 1311, 1844, 2151, 1406, 1868, 1275, 2131, 1312, 2147, 1330, 1996, 1618, 1473, 1428, 1706, 2126, 1660, 1373, 1337, 2112, 1681, 1381, 1279, 1701, 1674, 1564, 1315, 1585, 2265, 1393, 2187, 1469, 2138, 1824, 2063, 1468, 1333, 1463, 1530, 1345, 1989, 1499, 1236, 1860, 1790, 2151, 1970, 1238, 1859, 1321, 2092, 1377, 2136, 1277, 1863, 1230, 2120, 1275, 1864, 1315, 1978, 1815, 1227, 1769, 1284, 1930, 1522, 1987, 1854, 1576, 2209, 1388, 1287, 1601, 2247, 1771, 1707, 1827, 2254, 2296, 1177, 1693, 1603, 2022, 1908, 1294, 1169, 1911, 1238, 1408, 1494, 2036, 1450, 1201, 1923, 1444, 1481, 1819, 2284, 1939, 2189, 1952, 1755, 1294, 2255, 1413, 1915, 1379, 1773, 2440, 1592, 2149, 1597, 1202, 1562, 1485, 1594, 1815, 2168, 1467, 1250, 1754, 2203, 1919, 1262, 2411, 1411, 1873, 1570, 2073, 1486, 2164, 1316, 1932, 1219, 2031, 2171, 2101, 1221, 1979, 1249, 1925, 1727, 1587, 1604, 1305, 1442, 1286, 1390, 2134, 1966, 1787, 1792, 1653, 2015, 1460, 1919, 1350, 1215, 1302, 1490, 1877, 1792, 1839, 1965, 2226, 1658, 2363, 1305, 1811, 1566, 1939, 1280, 1816, 1449, 1426, 1295, 1929, 1295, 1746, 1666, 1376, 2272, 1351, 2174, 2035, 1373, 1246, 1577, 1531, 2236, 1481, 1560, 1604, 2118, 2205, 1554, 1289, 1869, 1331, 1470],
      "WindowCenter": [492.0, 493.0, 490.0, 494.0, 490.0, 496.0, 491.0, 494.0, 493.0, 492.0, 492.0, 494.0, 489.0, 493.0, 489.0, 495.0, 490.0, 494.0, 489.0, 490.0, 491.0, 494.0, 493.0, 491.0, 492.0, 495.0, 492.0, 491.0, 494.0, 496.0, 490.0, 493.0, 494.0, 491.0, 489.0, 495.0, 492.0, 496.0, 493.0, 493.0, 493.0, 495.0, 496.0, 492.0, 493.0, 494.0, 490.0, 496.0, 490.0, 490.0, 491.0, 494.0, 493.0, 498.0, 492.0, 497.0, 493.0, 495.0, 497.0, 492.0, 497.0, 491.0, 496.0, 495.0, 493.0, 495.0, 497.0, 495.0, 496.0, 494.0, 496.0, 495.0, 491.0, 496.0, 493.0, 492.0, 494.0, 498.0, 493.0, 499.0, 497.0, 495.0, 494.0, 499.0, 499.0, 497.0, 494.0, 494.0, 497.0, 493.0, 495.0, 495.0, 494.0, 495.0, 498.0, 492.0, 498.0, 494.0, 498.0, 494.0, 497.0, 498.0, 494.0, 497.0, 493.0, 498.0, 494.0, 498.0, 493.0, 498.0, 495.0, 495.0, 495.0, 498.0, 498.0, 495.0, 494.0, 494.0, 499.0, 497.0, 495.0, 494.0, 498.0, 496.0, 495.0, 494.0, 498.0, 501.0, 495.0, 498.0, 494.0, 498.0, 497.0, 498.0, 494.0, 493.0, 494.0, 496.0, 495.0, 499.0, 495.0, 494.0, 500.0, 498.0, 499.0, 498.0, 493.0, 498.0, 495.0, 499.0, 495.0, 500.0, 495.0, 500.0, 495.0, 500.0, 496.0, 501.0, 497.0, 501.0, 499.0, 495.0, 500.0, 497.0, 502.0, 498.0, 500.0, 500.0, 498.0, 501.0, 496.0, 496.0, 499.0, 501.0, 499.0, 498.0, 500.0, 500.0, 502.0, 495.0, 500.0, 499.0, 500.0, 497.0, 493.0, 493.0, 500.0, 495.0, 498.0, 499.0, 503.0, 499.0, 497.0, 504.0, 501.0, 501.0, 503.0, 505.0, 503.0, 503.0, 502.0, 501.0, 498.0, 504.0, 500.0, 502.0, 499.0, 501.0, 504.0, 499.0, 502.0, 499.0, 496.0, 500.0, 499.0, 501.0, 502.0, 503.0, 499.0, 498.0, 504.0, 505.0, 502.0, 497.0, 503.0, 499.0, 502.0, 501.0, 502.0, 499.0, 502.0, 498.0, 503.0, 497.0, 504.0, 504.0, 502.0, 496.0, 502.0, 497.0, 502.0, 501.0, 499.0, 500.0, 499.0, 499.0, 499.0, 501.0, 505.0, 502.0, 500.0, 500.0, 501.0, 503.0, 499.0, 500.0, 498.0, 498.0, 499.0, 503.0, 505.0, 504.0, 503.0, 503.0, 503.0, 499.0, 503.0, 498.0, 502.0, 500.0, 502.0, 498.0, 501.0, 499.0, 499.0, 499.0, 503.0, 499.0, 503.0, 502.0, 500.0, 504.0, 498.0, 503.0, 503.0, 498.0, 498.0, 502.0, 501.0, 504.0, 500.0, 502.0, 502.0, 504.0, 503.0, 500.0, 498.0, 503.0, 500.0, 502.0],
      "WindowWidth": [1030.0, 1030.0, 1024.0, 1032.0, 1025.0, 1035.0, 1027.0, 1031.0, 1030.0, 1027.0, 1028.0, 1031.0, 1024.0, 1030.0, 1024.0, 1033.0, 1025.0, 1031.0, 1023.0, 1025.0, 1027.0, 1031.0, 1029.0, 1026.0, 1027.0, 1033.0, 1029.0, 1027.0, 1032.0, 1035.0, 1025.0, 1030.0, 1031.0, 1026.0, 1025.0, 1033.0, 1030.0, 1035.0, 1031.0, 1031.0, 1030.0, 1034.0, 1035.0, 1029.0, 1030.0, 1031.0, 1026.0, 1035.0, 1025.0, 1026.0, 1028.0, 1032.0, 1031.0, 1039.0, 1030.0, 1037.0, 1031.0, 1035.0, 1037.0, 1029.0, 1038.0, 1028.0, 1035.0, 1034.0, 1030.0, 1034.0, 1037.0, 1034.0, 1037.0, 1032.0, 1035.0, 1034.0, 1027.0, 1036.0, 1032.0, 1030.0, 1033.0, 1039.0, 1031.0, 1042.0, 1039.0, 1035.0, 1033.0, 1043.0, 1042.0, 1038.0, 1033.0, 1032.0, 1038.0, 1031.0, 1034.0, 1034.0, 1033.0, 1035.0, 1039.0, 1030.0, 1040.0, 1033.0, 1039.0, 1033.0, 1038.0, 1040.0, 1034.0, 1038.0, 1033.0, 1040.0, 1033.0, 1041.0, 1031.0, 1040.0, 1035.0, 1035.0, 1035.0, 1040.0, 1039.0, 1035.0, 1034.0, 1034.0, 1042.0, 1038.0, 1035.0, 1035.0, 1040.0, 1037.0, 1035.0, 1034.0, 1040.0, 1046.0, 1034.0, 1041.0, 1033.0, 1040.0, 1037.0, 1040.0, 1033.0, 1032.0, 1034.0, 1036.0, 1036.0, 1042.0, 1035.0, 1034.0, 1044.0, 1041.0, 1041.0, 1039.0, 1033.0, 1041.0, 1036.0, 1042.0, 1036.0, 1043.0, 1036.0, 1044.0, 1036.0, 1045.0, 1038.0, 1047.0, 1039.0, 1046.0, 1043.0, 1036.0, 1043.0, 1040.0, 1048.0, 1042.0, 1044.0, 1043.0, 1042.0, 1045.0, 1037.0, 1039.0, 1044.0, 1047.0, 1042.0, 1041.0, 1044.0, 1045.0, 1049.0, 1037.0, 1045.0, 1044.0, 1045.0, 1038.0, 1033.0, 1033.0, 1045.0, 1037.0, 1042.0, 1044.0, 1049.0, 1043.0, 1040.0, 1051.0, 1048.0, 1047.0, 1051.0, 1055.0, 1050.0, 1050.0, 1047.0, 1046.0, 1041.0, 1051.0, 1045.0, 1049.0, 1043.0, 1047.0, 1053.0, 1044.0, 1047.0, 1043.0, 1038.0, 1046.0, 1045.0, 1046.0, 1049.0, 1051.0, 1043.0, 1043.0, 1052.0, 1054.0, 1048.0, 1040.0, 1050.0, 1043.0, 1048.0, 1047.0, 1049.0, 1045.0, 1049.0, 1042.0, 1050.0, 1041.0, 1053.0, 1051.0, 1050.0, 1039.0, 1048.0, 1041.0, 1049.0, 1046.0, 1043.0, 1044.0, 1044.0, 1044.0, 1044.0, 1047.0, 1054.0, 1049.0, 1046.0, 1045.0, 1047.0, 1050.0, 1043.0, 1045.0, 1042.0, 1043.0, 1045.0, 1051.0, 1055.0, 1052.0, 1050.0, 1051.0, 1052.0, 1044.0, 1050.0, 1041.0, 1049.0, 1046.0, 1049.0, 1041.0, 1046.0, 1043.0, 1045.0, 1043.0, 1050.0, 1043.0, 1050.0, 1048.0, 1045.0, 1052.0, 1043.0, 1051.0, 1050.0, 1043.0, 1043.0, 1049.0, 1048.0, 1053.0, 1046.0, 1049.0, 1050.0, 1053.0, 1052.0, 1045.0, 1043.0, 1050.0, 1045.0, 1049.0]
    },
    "slices": {}
  }
}