{
  "AcquisitionMatrixPE": 74,
  "AcquisitionNumber": 1,
  "AcquisitionTime": "12:23:37.852500",
  "BandwidthPerPixelPhaseEncode": 27.579,
  "BaseResolution": 74,
  "BodyPartExamined": "HEAD",
  "CoilString": "t:HEA;HEP",
  "ConversionSoftware": "dcm2niix",
  "ConversionSoftwareVersion": "v1.0.20190410  GCC6.3.0",
  "DerivedVendorReportedEchoSpacing": 0.000489993,
  "DeviceSerialNumber": "35256",
  "DwellTime": 2.4e-06,
  "EchoTime": 0.03,
  "EffectiveEchoSpacing": 0.000489993,
  "FlipAngle": 70,
  "ImageOrientationPatientDICOM": [1, 0, 0, 0, 1, 0],
  "ImageType": [
    "ORIGINAL",
    "PRIMARY",
    "M",
    "ND",
    "NORM",
    "MOSAIC"
],
  "ImagingFrequency": 123.223,
  "InPlanePhaseEncodingDirectionDICOM": "COL",
  "InstitutionAddress": "East_Lee_St._2907_Greensboro_NC_US_27401",
  "InstitutionName": "JSNN",
  "InstitutionalDepartmentName": "Department",
  "MRAcquisitionType": "2D",
  "MagneticFieldStrength": 3,
  "Manufacturer": "Siemens",
  "ManufacturersModelName": "TrioTim",
  "Modality": "MR",
  "PartialFourier": 1,
  "PatientPosition": "HFS",
  "PercentPhaseFOV": 100,
  "PhaseEncodingDirection": "j-",
  "PhaseEncodingSteps": 74,
  "PhaseResolution": 1,
  "PixelBandwidth": 2815,
  "ProcedureStepDescription": "head_Cassidy",
  "ProtocolName": "RestingState",
  "PulseSequenceDetails": "%SiemensSeq%_ep2d_bold",
  "ReceiveCoilName": "HeadMatrix",
  "ReconMatrixPE": 74,
  "RepetitionTime": 2,
  "SAR": 0.110065,
  "ScanOptions": "FS",
  "ScanningSequence": "EP",
  "SequenceName": "_epfid2d1_74",
  "SequenceVariant": "SK",
  "SeriesDescription": "RestingState",
  "SeriesNumber": 3,
  "ShimSetting": [1416, 10456, -8765, 490, -157, -315, -20, 6],
  "SliceThickness": 4,
  "SliceTiming": [1.945, 1.8825, 1.82, 1.7575, 1.695, 1.6325, 1.57, 1.5075, 1.445, 1.38, 1.3175, 1.255, 1.1925, 1.13, 1.0675, 1.005, 0.9425, 0.88, 0.8175, 0.755, 0.69, 0.6275, 0.565, 0.5025, 0.44, 0.3775, 0.315, 0.2525, 0.19, 0.1275, 0.065, 0],
  "SoftwareVersions": "syngo_MR_B19",
  "SpacingBetweenSlices": 4,
  "StationName": "JSNNMRI",
  "TaskName": "rest",
  "TotalReadoutTime": 0.0357695,
  "TxRefAmp": 255.894,
  "dcmmeta_affine": [
    [-2.972972869873047, 0.0, 0.0, 105.18071746826172],
    [0.0, 2.972972869873047, 0.0, -90.17699432373047],
    [0.0, 0.0, 4.0, -65.77963256835938],
    [0.0, 0.0, 0.0, 1.0]
],
  "dcmmeta_reorient_transform": [
    [0.0, -1.0, 0.0, 73.0],
    [1.0, 0.0, 0.0, 0.0],
    [0.0, 0.0, 1.0, 0.0],
    [0.0, 0.0, 0.0, 1.0]
],
  "dcmmeta_shape": [74, 74, 32, 300],
  "dcmmeta_slice_dim": 2,
  "dcmmeta_version": 0.6,
  "global": {
    "const": {
      "AcquisitionMatrix": [74, 0, 0, 74],
      "AngioFlag": "N",
      "BitsAllocated": 16,
      "BitsStored": 12,
      "BodyPartExamined": "HEAD",
      "Columns": 444,
      "EchoNumbers": 1,
      "EchoTime": 30.0,
      "EchoTrainLength": 1,
      "FlipAngle": 70.0,
      "HighBit": 11,
      "ImageOrientationPatient": [1.0, 0.0, 0.0, 0.0, 1.0, 0.0],
      "ImagePositionPatient": [-655.18069982529, -676.85000228882, -65.779632568359],
      "ImageType": [
        "ORIGINAL",
        "PRIMARY",
        "M",
        "ND",
        "NORM",
        "MOSAIC"
],
      "ImagedNucleus": "1H",
      "ImagingFrequency": 123.222698,
      "InPlanePhaseEncodingDirection": "COL",
      "MRAcquisitionType": "2D",
      "MagneticFieldStrength": 3.0,
      "Manufacturer": "SIEMENS",
      "ManufacturerModelName": "TrioTim",
      "Modality": "MR",
      "NumberOfAverages": 1.0,
      "NumberOfPhaseEncodingSteps": 74,
      "PercentPhaseFieldOfView": 100.0,
      "PercentSampling": 100.0,
      "PerformedProcedureStepStartTime": "115953.703000",
      "PhotometricInterpretation": "MONOCHROME2",
      "PixelBandwidth": 2815.0,
      "PixelRepresentation": 0,
      "PixelSpacing": [2.972972869873, 2.972972869873],
      "ProtocolName": "RestingState",
      "RepetitionTime": 2000.0,
      "Rows": 444,
      "SAR": 0.11006492667593,
      "SamplesPerPixel": 1,
      "ScanOptions": "FS",
      "ScanningSequence": "EP",
      "SequenceName": "*epfid2d1_74",
      "SequenceVariant": "SK",
      "SeriesDescription": "RestingState",
      "SeriesNumber": 3,
      "SeriesTime": "122422.578000",
      "SliceLocation": -65.779632568359,
      "SliceThickness": 4.0,
      "SmallestImagePixelValue": 0,
      "SoftwareVersions": "syngo MR B19",
      "SpacingBetweenSlices": 4.0,
      "SpecificCharacterSet": "ISO_IR 100",
      "StudyID": "1",
      "StudyTime": "115953.671000",
      "TransmitCoilName": "Body",
      "VariableFlipAngleFlag": "N",
      "WindowCenterWidthExplanation": "Algo1",
      "dBdt": 0.0},
    "slices": {}
  },
  "time": {
    "samples": {
      "AcquisitionNumber": [1, 2, 3, 4, 5, 6, 7, 8, 9, 10, 11, 12, 13, 14, 15, 16, 17, 18, 19, 20, 21, 22, 23, 24, 25, 26, 27, 28, 29, 30, 31, 32, 33, 34, 35, 36, 37, 38, 39, 40, 41, 42, 43, 44, 45, 46, 47, 48, 49, 50, 51, 52, 53, 54, 55, 56, 57, 58, 59, 60, 61, 62, 63, 64, 65, 66, 67, 68, 69, 70, 71, 72, 73, 74, 75, 76, 77, 78, 79, 80, 81, 82, 83, 84, 85, 86, 87, 88, 89, 90, 91, 92, 93, 94, 95, 96, 97, 98, 99, 100, 101, 102, 103, 104, 105, 106, 107, 108, 109, 110, 111, 112, 113, 114, 115, 116, 117, 118, 119, 120, 121, 122, 123, 124, 125, 126, 127, 128, 129, 130, 131, 132, 133, 134, 135, 136, 137, 138, 139, 140, 141, 142, 143, 144, 145, 146, 147, 148, 149, 150, 151, 152, 153, 154, 155, 156, 157, 158, 159, 160, 161, 162, 163, 164, 165, 166, 167, 168, 169, 170, 171, 172, 173, 174, 175, 176, 177, 178, 179, 180, 181, 182, 183, 184, 185, 186, 187, 188, 189, 190, 191, 192, 193, 194, 195, 196, 197, 198, 199, 200, 201, 202, 203, 204, 205, 206, 207, 208, 209, 210, 211, 212, 213, 214, 215, 216, 217, 218, 219, 220, 221, 222, 223, 224, 225, 226, 227, 228, 229, 230, 231, 232, 233, 234, 235, 236, 237, 238, 239, 240, 241, 242, 243, 244, 245, 246, 247, 248, 249, 250, 251, 252, 253, 254, 255, 256, 257, 258, 259, 260, 261, 262, 263, 264, 265, 266, 267, 268, 269, 270, 271, 272, 273, 274, 275, 276, 277, 278, 279, 280, 281, 282, 283, 284, 285, 286, 287, 288, 289, 290, 291, 292, 293, 294, 295, 296, 297, 298, 299, 300],
      "AcquisitionTime": ["122337.852500", "122339.862500", "122341.870000", "122343.877500", "122345.885000", "122347.892500", "122349.902500", "122351.910000", "122353.917500", "122355.925000", "122357.932500", "122359.942500", "122401.950000", "122403.957500", "122405.965000", "122407.975000", "122409.982500", "122411.990000", "122413.997500", "122416.005000", "122418.015000", "122420.022500", "122422.030000", "122424.037500", "122426.045000", "122428.055000", "122430.062500", "122432.070000", "122434.077500", "122436.085000", "122438.095000", "122440.102500", "122442.110000", "122444.117500", "122446.127500", "122448.135000", "122450.142500", "122452.150000", "122454.157500", "122456.167500", "122458.175000", "122500.182500", "122502.190000", "122504.197500", "122506.207500", "122508.215000", "122510.222500", "122512.230000", "122514.240000", "122516.247500", "122518.255000", "122520.262500", "122522.270000", "122524.280000", "122526.287500", "122528.295000", "122530.302500", "122532.310000", "122534.320000", "122536.327500", "122538.335000", "122540.342500", "122542.352500", "122544.360000", "122546.367500", "122548.375000", "122550.382500", "122552.392500", "122554.400000", "122556.407500", "122558.415000", "122600.422500", "122602.432500", "122604.440000", "122606.447500", "122608.455000", "122610.462500", "122612.472500", "122614.480000", "122616.487500", "122618.495000", "122620.505000", "122622.512500", "122624.520000", "122626.527500", "122628.535000", "122630.545000", "122632.552500", "122634.560000", "122636.567500", "122638.575000", "122640.585000", "122642.592500", "122644.600000", "122646.607500", "122648.617500", "122650.625000", "122652.632500", "122654.640000", "122656.647500", "122658.657500", "122700.665000", "122702.672500", "122704.680000", "122706.687500", "122708.697500", "122710.705000", "122712.712500", "122714.720000", "122716.730000", "122718.737500", "122720.745000", "122722.752500", "122724.760000", "122726.770000", "122728.777500", "122730.785000", "122732.792500", "122734.800000", "122736.810000", "122738.817500", "122740.825000", "122742.832500", "122744.840000", "122746.850000", "122748.857500", "122750.865000", "122752.872500", "122754.882500", "122756.890000", "122758.897500", "122800.905000", "122802.912500", "122804.922500", "122806.930000", "122808.937500", "122810.945000", "122812.952500", "122814.962500", "122816.970000", "122818.977500", "122820.985000", "122822.995000", "122825.002500", "122827.010000", "122829.017500", "122831.025000", "122833.035000", "122835.042500", "122837.050000", "122839.057500", "122841.065000", "122843.075000", "122845.082500", "122847.090000", "122849.097500", "122851.107500", "122853.115000", "122855.122500", "122857.130000", "122859.137500", "122901.147500", "122903.155000", "122905.162500", "122907.170000", "122909.177500", "122911.187500", "122913.195000", "122915.202500", "122917.210000", "122919.220000", "122921.227500", "122923.235000", "122925.242500", "122927.250000", "122929.260000", "122931.267500", "122933.275000", "122935.282500", "122937.290000", "122939.300000", "122941.307500", "122943.315000", "122945.322500", "122947.330000", "122949.340000", "122951.347500", "122953.355000", "122955.362500", "122957.372500", "122959.380000", "123001.387500", "123003.395000", "123005.402500", "123007.412500", "123009.420000", "123011.427500", "123013.435000", "123015.442500", "123017.452500", "123019.460000", "123021.467500", "123023.475000", "123025.485000", "123027.492500", "123029.500000", "123031.507500", "123033.515000", "123035.525000", "123037.532500", "123039.540000", "123041.547500", "123043.555000", "123045.565000", "123047.572500", "123049.580000", "123051.587500", "123053.597500", "123055.605000", "123057.612500", "123059.620000", "123101.627500", "123103.637500", "123105.645000", "123107.652500", "123109.660000", "123111.667500", "123113.677500", "123115.685000", "123117.692500", "123119.700000", "123121.707500", "123123.717500", "123125.725000", "123127.732500", "123129.740000", "123131.750000", "123133.757500", "123135.765000", "123137.772500", "123139.780000", "123141.790000", "123143.797500", "123145.805000", "123147.812500", "123149.820000", "123151.830000", "123153.837500", "123155.845000", "123157.852500", "123159.862500", "123201.870000", "123203.877500", "123205.885000", "123207.892500", "123209.902500", "123211.910000", "123213.917500", "123215.925000", "123217.932500", "123219.942500", "123221.950000", "123223.957500", "123225.965000", "123227.975000", "123229.982500", "123231.990000", "123233.997500", "123236.005000", "123238.015000", "123240.022500", "123242.030000", "123244.037500", "123246.045000", "123248.055000", "123250.062500", "123252.070000", "123254.077500", "123256.085000", "123258.095000", "123300.102500", "123302.110000", "123304.117500", "123306.127500", "123308.135000", "123310.142500", "123312.150000", "123314.157500", "123316.167500", "123318.175000", "123320.182500", "123322.190000", "123324.197500", "123326.207500", "123328.215000", "123330.222500", "123332.230000", "123334.240000", "123336.247500", "123338.255000"],
      "ContentTime": ["122422.578000", "122422.578000", "122422.578000", "122422.593000", "122422.593000", "122422.593000", "122422.593000", "122422.593000", "122422.593000", "122422.593000", "122422.609000", "122422.609000", "122422.609000", "122422.609000", "122422.609000", "122422.609000", "122422.609000", "122422.609000", "122422.625000", "122422.625000", "122422.625000", "122422.625000", "122502.578000", "122502.578000", "122502.578000", "122502.578000", "122502.578000", "122502.593000", "122502.593000", "122502.593000", "122502.593000", "122502.593000", "122502.593000", "122502.593000", "122502.593000", "122502.609000", "122502.609000", "122502.609000", "122502.609000", "122502.609000", "122502.609000", "122502.609000", "122542.578000", "122542.578000", "122542.578000", "122542.578000", "122542.578000", "122542.578000", "122542.593000", "122542.593000", "122542.593000", "122542.593000", "122542.593000", "122542.593000", "122542.593000", "122542.609000", "122542.609000", "122542.609000", "122542.609000", "122542.609000", "122542.625000", "122542.625000", "122622.578000", "122622.578000", "122622.578000", "122622.578000", "122622.578000", "122622.593000", "122622.593000", "122622.593000", "122622.593000", "122622.593000", "122622.593000", "122622.593000", "122622.593000", "122622.609000", "122622.609000", "122622.609000", "122622.609000", "122622.609000", "122622.609000", "122622.609000", "122702.578000", "122702.593000", "122702.593000", "122702.593000", "122702.593000", "122702.593000", "122702.593000", "122702.593000", "122702.593000", "122702.609000", "122702.609000", "122702.609000", "122702.609000", "122702.609000", "122702.609000", "122702.609000", "122702.625000", "122702.625000", "122702.625000", "122702.625000", "122742.578000", "122742.578000", "122742.578000", "122742.578000", "122742.578000", "122742.593000", "122742.593000", "122742.593000", "122742.593000", "122742.593000", "122742.593000", "122742.593000", "122742.593000", "122742.609000", "122742.609000", "122742.609000", "122742.625000", "122742.625000", "122742.625000", "122742.625000", "122822.578000", "122822.578000", "122822.578000", "122822.578000", "122822.578000", "122822.578000", "122822.593000", "122822.593000", "122822.593000", "122822.593000", "122822.593000", "122822.593000", "122822.593000", "122822.609000", "122822.609000", "122822.609000", "122822.609000", "122822.609000", "122822.609000", "122822.609000", "122902.578000", "122902.578000", "122902.578000", "122902.593000", "122902.593000", "122902.593000", "122902.593000", "122902.593000", "122902.593000", "122902.609000", "122902.609000", "122902.609000", "122902.625000", "122902.625000", "122902.625000", "122902.625000", "122902.625000", "122902.625000", "122902.640000", "122902.656000", "122942.578000", "122942.578000", "122942.578000", "122942.578000", "122942.578000", "122942.593000", "122942.593000", "122942.593000", "122942.593000", "122942.593000", "122942.609000", "122942.609000", "122942.625000", "122942.625000", "122942.625000", "122942.625000", "122942.640000", "122942.640000", "122942.640000", "122942.640000", "123022.578000", "123022.578000", "123022.578000", "123022.593000", "123022.593000", "123022.593000", "123022.593000", "123022.593000", "123022.593000", "123022.609000", "123022.609000", "123022.609000", "123022.609000", "123022.625000", "123022.625000", "123022.625000", "123022.625000", "123022.640000", "123022.640000", "123022.640000", "123102.578000", "123102.578000", "123102.578000", "123102.578000", "123102.578000", "123102.593000", "123102.593000", "123102.593000", "123102.593000", "123102.593000", "123102.593000", "123102.593000", "123102.593000", "123102.609000", "123102.609000", "123102.609000", "123102.609000", "123102.609000", "123102.625000", "123102.625000", "123142.578000", "123142.578000", "123142.578000", "123142.578000", "123142.578000", "123142.593000", "123142.593000", "123142.593000", "123142.593000", "123142.593000", "123142.593000", "123142.593000", "123142.593000", "123142.609000", "123142.609000", "123142.609000", "123142.609000", "123142.609000", "123142.609000", "123142.609000", "123222.578000", "123222.578000", "123222.578000", "123222.578000", "123222.578000", "123222.593000", "123222.593000", "123222.593000", "123222.593000", "123222.593000", "123222.593000", "123222.593000", "123222.593000", "123222.609000", "123222.609000", "123222.609000", "123222.609000", "123222.609000", "123222.609000", "123222.609000", "123242.578000", "123242.578000", "123242.578000", "123242.578000", "123242.578000", "123242.593000", "123242.593000", "123242.593000", "123242.593000", "123242.593000", "123322.578000", "123322.578000", "123322.578000", "123322.578000", "123322.578000", "123322.593000", "123322.593000", "123322.593000", "123322.593000", "123322.593000", "123322.593000", "123322.593000", "123322.593000", "123322.609000", "123322.609000", "123322.609000", "123322.609000", "123322.609000", "123322.609000", "123322.609000", "123337.609000", "123337.609000", "123337.609000", "123337.609000", "123337.609000", "123337.609000", "123337.625000", "123337.625000"],
      "InstanceCreationTime": ["122422.578000", "122422.578000", "122422.578000", "122422.593000", "122422.593000", "122422.593000", "122422.593000", "122422.593000", "122422.593000", "122422.593000", "122422.609000", "122422.609000", "122422.609000", "122422.609000", "122422.609000", "122422.609000", "122422.609000", "122422.609000", "122422.625000", "122422.625000", "122422.625000", "122422.625000", "122502.578000", "122502.578000", "122502.578000", "122502.578000", "122502.578000", "122502.593000", "122502.593000", "122502.593000", "122502.593000", "122502.593000", "122502.593000", "122502.593000", "122502.593000", "122502.609000", "122502.609000", "122502.609000", "122502.609000", "122502.609000", "122502.609000", "122502.609000", "122542.578000", "122542.578000", "122542.578000", "122542.578000", "122542.578000", "122542.578000", "122542.593000", "122542.593000", "122542.593000", "122542.593000", "122542.593000", "122542.593000", "122542.593000", "122542.609000", "122542.609000", "122542.609000", "122542.609000", "122542.609000", "122542.625000", "122542.625000", "122622.578000", "122622.578000", "122622.578000", "122622.578000", "122622.578000", "122622.593000", "122622.593000", "122622.593000", "122622.593000", "122622.593000", "122622.593000", "122622.593000", "122622.593000", "122622.609000", "122622.609000", "122622.609000", "122622.609000", "122622.609000", "122622.609000", "122622.609000", "122702.578000", "122702.593000", "122702.593000", "122702.593000", "122702.593000", "122702.593000", "122702.593000", "122702.593000", "122702.593000", "122702.609000", "122702.609000", "122702.609000", "122702.609000", "122702.609000", "122702.609000", "122702.609000", "122702.625000", "122702.625000", "122702.625000", "122702.625000", "122742.578000", "122742.578000", "122742.578000", "122742.578000", "122742.578000", "122742.593000", "122742.593000", "122742.593000", "122742.593000", "122742.593000", "122742.593000", "122742.593000", "122742.593000", "122742.609000", "122742.609000", "122742.609000", "122742.625000", "122742.625000", "122742.625000", "122742.625000", "122822.578000", "122822.578000", "122822.578000", "122822.578000", "122822.578000", "122822.578000", "122822.593000", "122822.593000", "122822.593000", "122822.593000", "122822.593000", "122822.593000", "122822.593000", "122822.609000", "122822.609000", "122822.609000", "122822.609000", "122822.609000", "122822.609000", "122822.609000", "122902.578000", "122902.578000", "122902.578000", "122902.593000", "122902.593000", "122902.593000", "122902.593000", "122902.593000", "122902.593000", "122902.609000", "122902.609000", "122902.609000", "122902.625000", "122902.625000", "122902.625000", "122902.625000", "122902.625000", "122902.625000", "122902.640000", "122902.656000", "122942.578000", "122942.578000", "122942.578000", "122942.578000", "122942.578000", "122942.593000", "122942.593000", "122942.593000", "122942.593000", "122942.593000", "122942.609000", "122942.609000", "122942.625000", "122942.625000", "122942.625000", "122942.625000", "122942.640000", "122942.640000", "122942.640000", "122942.640000", "123022.578000", "123022.578000", "123022.578000", "123022.593000", "123022.593000", "123022.593000", "123022.593000", "123022.593000", "123022.593000", "123022.609000", "123022.609000", "123022.609000", "123022.609000", "123022.625000", "123022.625000", "123022.625000", "123022.625000", "123022.640000", "123022.640000", "123022.640000", "123102.578000", "123102.578000", "123102.578000", "123102.578000", "123102.578000", "123102.593000", "123102.593000", "123102.593000", "123102.593000", "123102.593000", "123102.593000", "123102.593000", "123102.593000", "123102.609000", "123102.609000", "123102.609000", "123102.609000", "123102.609000", "123102.625000", "123102.625000", "123142.578000", "123142.578000", "123142.578000", "123142.578000", "123142.578000", "123142.593000", "123142.593000", "123142.593000", "123142.593000", "123142.593000", "123142.593000", "123142.593000", "123142.593000", "123142.609000", "123142.609000", "123142.609000", "123142.609000", "123142.609000", "123142.609000", "123142.609000", "123222.578000", "123222.578000", "123222.578000", "123222.578000", "123222.578000", "123222.593000", "123222.593000", "123222.593000", "123222.593000", "123222.593000", "123222.593000", "123222.593000", "123222.593000", "123222.609000", "123222.609000", "123222.609000", "123222.609000", "123222.609000", "123222.609000", "123222.609000", "123242.578000", "123242.578000", "123242.578000", "123242.578000", "123242.578000", "123242.593000", "123242.593000", "123242.593000", "123242.593000", "123242.593000", "123322.578000", "123322.578000", "123322.578000", "123322.578000", "123322.578000", "123322.593000", "123322.593000", "123322.593000", "123322.593000", "123322.593000", "123322.593000", "123322.593000", "123322.593000", "123322.609000", "123322.609000", "123322.609000", "123322.609000", "123322.609000", "123322.609000", "123322.609000", "123337.609000", "123337.609000", "123337.609000", "123337.609000", "123337.609000", "123337.609000", "123337.625000", "123337.625000"],
      "InstanceNumber": [1, 2, 3, 4, 5, 6, 7, 8, 9, 10, 11, 12, 13, 14, 15, 16, 17, 18, 19, 20, 21, 22, 23, 24, 25, 26, 27, 28, 29, 30, 31, 32, 33, 34, 35, 36, 37, 38, 39, 40, 41, 42, 43, 44, 45, 46, 47, 48, 49, 50, 51, 52, 53, 54, 55, 56, 57, 58, 59, 60, 61, 62, 63, 64, 65, 66, 67, 68, 69, 70, 71, 72, 73, 74, 75, 76, 77, 78, 79, 80, 81, 82, 83, 84, 85, 86, 87, 88, 89, 90, 91, 92, 93, 94, 95, 96, 97, 98, 99, 100, 101, 102, 103, 104, 105, 106, 107, 108, 109, 110, 111, 112, 113, 114, 115, 116, 117, 118, 119, 120, 121, 122, 123, 124, 125, 126, 127, 128, 129, 130, 131, 132, 133, 134, 135, 136, 137, 138, 139, 140, 141, 142, 143, 144, 145, 146, 147, 148, 149, 150, 151, 152, 153, 154, 155, 156, 157, 158, 159, 160, 161, 162, 163, 164, 165, 166, 167, 168, 169, 170, 171, 172, 173, 174, 175, 176, 177, 178, 179, 180, 181, 182, 183, 184, 185, 186, 187, 188, 189, 190, 191, 192, 193, 194, 195, 196, 197, 198, 199, 200, 201, 202, 203, 204, 205, 206, 207, 208, 209, 210, 211, 212, 213, 214, 215, 216, 217, 218, 219, 220, 221, 222, 223, 224, 225, 226, 227, 228, 229, 230, 231, 232, 233, 234, 235, 236, 237, 238, 239, 240, 241, 242, 243, 244, 245, 246, 247, 248, 249, 250, 251, 252, 253, 254, 255, 256, 257, 258, 259, 260, 261, 262, 263, 264, 265, 266, 267, 268, 269, 270, 271, 272, 273, 274, 275, 276, 277, 278, 279, 280, 281, 282, 283, 284, 285, 286, 287, 288, 289, 290, 291, 292, 293, 294, 295, 296, 297, 298, 299, 300],
      "LargestImagePixelValue": [1448, 1412, 1448, 1380, 1404, 1374, 1484, 1311, 1417, 1503, 1330, 1376, 1447, 1475, 1460, 1347, 1406, 1454, 1506, 1374, 1415, 1416, 1522, 1346, 1395, 1415, 1446, 1502, 1373, 1424, 1420, 1482, 1493, 1380, 1442, 1446, 1519, 1355, 1414, 1431, 1419, 1438, 1484, 1452, 1466, 1507, 1449, 1387, 1443, 1573, 1565, 1356, 1420, 1463, 1422, 1479, 1367, 1339, 1311, 1459, 1436, 1451, 1545, 1651, 1570, 1351, 1440, 1419, 1569, 1549, 1468, 1443, 1456, 1441, 1436, 1516, 1661, 1538, 1431, 1326, 1402, 1393, 1390, 1427, 1444, 1442, 1527, 1522, 1642, 1526, 1385, 1368, 1597, 1376, 1429, 1380, 1415, 1433, 1433, 1417, 1389, 1409, 1429, 1449, 1445, 1501, 1564, 1512, 1541, 1519, 1390, 1349, 1404, 1338, 1507, 1361, 1320, 1365, 1337, 1544, 1666, 1505, 1403, 1399, 1413, 1445, 1410, 1384, 1423, 1530, 1446, 1452, 1529, 1414, 1300, 1478, 1386, 1513, 1357, 1393, 1422, 1447, 1482, 1425, 1457, 1565, 1463, 1445, 1467, 1441, 1444, 1469, 1470, 1450, 1884, 1551, 1430, 1443, 1444, 1474, 1470, 1354, 1512, 1607, 1569, 1525, 1437, 1349, 1483, 1445, 1453, 1450, 1498, 1323, 1414, 1514, 2011, 2061, 1962, 1469, 1411, 1454, 1443, 1458, 1495, 1497, 1489, 1523, 1505, 1471, 1544, 1523, 1485, 1510, 1556, 1465, 1517, 1543, 1453, 1491, 1476, 1669, 1648, 1523, 1632, 1624, 1527, 1377, 1436, 1440, 1456, 1423, 1465, 1481, 1496, 1619, 1447, 1448, 1459, 1479, 1515, 1519, 1501, 1497, 1492, 1592, 1484, 1457, 1476, 1530, 1762, 1740, 1731, 1767, 1699, 1480, 1472, 1505, 1668, 1512, 1570, 1590, 1512, 1522, 1514, 1532, 1502, 1791, 1563, 1760, 1492, 1488, 1476, 1467, 1459, 1440, 1421, 1381, 1419, 1486, 1570, 1587, 1564, 1448, 1531, 1421, 1458, 1462, 1501, 1478, 1483, 1491, 1463, 1646, 1497, 1484, 1467, 1503, 1631, 1598, 1799, 1779, 1576, 1586, 1504, 1409, 1603, 1495, 1382, 1431, 1408, 1388, 1541, 1426, 1609, 1438, 1534, 1738, 2119, 2121],
      "WindowCenter": [571.0, 568.0, 568.0, 567.0, 566.0, 566.0, 566.0, 566.0, 566.0, 568.0, 566.0, 566.0, 568.0, 567.0, 568.0, 567.0, 566.0, 568.0, 568.0, 566.0, 566.0, 567.0, 568.0, 567.0, 567.0, 568.0, 567.0, 569.0, 568.0, 568.0, 568.0, 568.0, 569.0, 568.0, 569.0, 569.0, 570.0, 568.0, 569.0, 569.0, 569.0, 569.0, 569.0, 570.0, 571.0, 570.0, 570.0, 569.0, 569.0, 569.0, 569.0, 568.0, 568.0, 570.0, 570.0, 570.0, 570.0, 571.0, 570.0, 572.0, 572.0, 573.0, 574.0, 571.0, 570.0, 569.0, 570.0, 569.0, 569.0, 569.0, 568.0, 569.0, 571.0, 571.0, 570.0, 570.0, 570.0, 568.0, 568.0, 567.0, 569.0, 569.0, 569.0, 570.0, 572.0, 572.0, 574.0, 574.0, 573.0, 571.0, 571.0, 572.0, 572.0, 570.0, 569.0, 570.0, 571.0, 571.0, 570.0, 570.0, 570.0, 571.0, 572.0, 573.0, 573.0, 574.0, 573.0, 573.0, 573.0, 573.0, 573.0, 572.0, 574.0, 573.0, 576.0, 573.0, 573.0, 573.0, 573.0, 575.0, 574.0, 573.0, 573.0, 572.0, 573.0, 572.0, 571.0, 571.0, 573.0, 574.0, 572.0, 571.0, 572.0, 572.0, 572.0, 575.0, 575.0, 574.0, 572.0, 573.0, 573.0, 575.0, 574.0, 575.0, 574.0, 575.0, 574.0, 573.0, 573.0, 574.0, 574.0, 574.0, 574.0, 573.0, 574.0, 572.0, 572.0, 573.0, 574.0, 574.0, 575.0, 574.0, 576.0, 576.0, 574.0, 574.0, 574.0, 573.0, 576.0, 575.0, 575.0, 575.0, 576.0, 574.0, 577.0, 577.0, 576.0, 574.0, 573.0, 570.0, 570.0, 570.0, 571.0, 572.0, 574.0, 574.0, 576.0, 576.0, 576.0, 577.0, 577.0, 577.0, 576.0, 577.0, 576.0, 576.0, 576.0, 575.0, 575.0, 575.0, 576.0, 577.0, 576.0, 574.0, 575.0, 576.0, 575.0, 573.0, 575.0, 575.0, 575.0, 574.0, 575.0, 576.0, 575.0, 578.0, 576.0, 575.0, 575.0, 576.0, 577.0, 578.0, 578.0, 578.0, 577.0, 578.0, 577.0, 577.0, 579.0, 579.0, 580.0, 578.0, 578.0, 577.0, 576.0, 574.0, 574.0, 574.0, 576.0, 576.0, 576.0, 576.0, 575.0, 575.0, 577.0, 578.0, 578.0, 579.0, 575.0, 576.0, 574.0, 574.0, 574.0, 574.0, 575.0, 575.0, 575.0, 577.0, 577.0, 577.0, 578.0, 578.0, 577.0, 577.0, 578.0, 577.0, 577.0, 577.0, 578.0, 578.0, 578.0, 578.0, 579.0, 579.0, 578.0, 578.0, 578.0, 578.0, 578.0, 577.0, 577.0, 577.0, 574.0, 575.0, 576.0, 576.0, 579.0, 577.0, 576.0, 578.0, 578.0, 578.0, 579.0, 578.0, 580.0, 577.0, 578.0, 580.0, 580.0, 578.0],
      "WindowWidth": [1201.0, 1194.0, 1194.0, 1192.0, 1190.0, 1190.0, 1190.0, 1190.0, 1191.0, 1193.0, 1190.0, 1190.0, 1194.0, 1193.0, 1195.0, 1193.0, 1191.0, 1194.0, 1193.0, 1190.0, 1191.0, 1193.0, 1194.0, 1192.0, 1192.0, 1194.0, 1193.0, 1197.0, 1195.0, 1195.0, 1194.0, 1195.0, 1196.0, 1195.0, 1197.0, 1197.0, 1198.0, 1196.0, 1196.0, 1198.0, 1197.0, 1196.0, 1197.0, 1199.0, 1200.0, 1199.0, 1199.0, 1197.0, 1196.0, 1196.0, 1197.0, 1194.0, 1196.0, 1199.0, 1198.0, 1199.0, 1200.0, 1201.0, 1199.0, 1202.0, 1204.0, 1205.0, 1206.0, 1201.0, 1198.0, 1198.0, 1198.0, 1196.0, 1197.0, 1197.0, 1196.0, 1197.0, 1202.0, 1202.0, 1199.0, 1199.0, 1198.0, 1195.0, 1195.0, 1193.0, 1196.0, 1197.0, 1198.0, 1200.0, 1203.0, 1204.0, 1208.0, 1207.0, 1204.0, 1202.0, 1202.0, 1203.0, 1203.0, 1198.0, 1198.0, 1198.0, 1202.0, 1200.0, 1199.0, 1200.0, 1200.0, 1202.0, 1204.0, 1206.0, 1206.0, 1207.0, 1206.0, 1205.0, 1205.0, 1206.0, 1206.0, 1204.0, 1208.0, 1206.0, 1211.0, 1207.0, 1206.0, 1207.0, 1207.0, 1211.0, 1208.0, 1206.0, 1206.0, 1204.0, 1205.0, 1204.0, 1202.0, 1201.0, 1205.0, 1208.0, 1203.0, 1202.0, 1204.0, 1205.0, 1204.0, 1210.0, 1209.0, 1207.0, 1203.0, 1205.0, 1206.0, 1209.0, 1208.0, 1211.0, 1209.0, 1210.0, 1208.0, 1206.0, 1206.0, 1207.0, 1208.0, 1209.0, 1209.0, 1207.0, 1207.0, 1203.0, 1203.0, 1207.0, 1207.0, 1209.0, 1210.0, 1209.0, 1212.0, 1211.0, 1207.0, 1209.0, 1207.0, 1206.0, 1211.0, 1210.0, 1210.0, 1211.0, 1213.0, 1209.0, 1214.0, 1215.0, 1213.0, 1207.0, 1204.0, 1200.0, 1199.0, 1199.0, 1201.0, 1203.0, 1207.0, 1209.0, 1213.0, 1213.0, 1212.0, 1214.0, 1214.0, 1215.0, 1213.0, 1213.0, 1213.0, 1213.0, 1212.0, 1211.0, 1210.0, 1211.0, 1212.0, 1213.0, 1212.0, 1208.0, 1209.0, 1211.0, 1210.0, 1207.0, 1209.0, 1210.0, 1210.0, 1209.0, 1210.0, 1212.0, 1209.0, 1216.0, 1213.0, 1210.0, 1210.0, 1212.0, 1214.0, 1216.0, 1216.0, 1216.0, 1215.0, 1217.0, 1215.0, 1214.0, 1218.0, 1219.0, 1220.0, 1217.0, 1216.0, 1215.0, 1211.0, 1208.0, 1208.0, 1209.0, 1212.0, 1211.0, 1212.0, 1212.0, 1210.0, 1211.0, 1214.0, 1216.0, 1216.0, 1217.0, 1209.0, 1212.0, 1207.0, 1207.0, 1209.0, 1208.0, 1209.0, 1211.0, 1211.0, 1214.0, 1214.0, 1215.0, 1217.0, 1216.0, 1215.0, 1215.0, 1216.0, 1214.0, 1214.0, 1215.0, 1216.0, 1217.0, 1216.0, 1217.0, 1219.0, 1219.0, 1218.0, 1217.0, 1216.0, 1217.0, 1217.0, 1215.0, 1215.0, 1213.0, 1209.0, 1210.0, 1211.0, 1212.0, 1218.0, 1214.0, 1213.0, 1216.0, 1217.0, 1217.0, 1219.0, 1217.0, 1220.0, 1215.0, 1218.0, 1220.0, 1221.0, 1214.0]
    },
    "slices": {}
  }
}