{
  "AcquisitionMatrixPE": 74,
  "AcquisitionNumber": 1,
  "AcquisitionTime": "09:48:31.282500",
  "BandwidthPerPixelPhaseEncode": 27.579,
  "BaseResolution": 74,
  "BodyPartExamined": "HEAD",
  "CoilString": "t:HEA;HEP",
  "ConversionSoftware": "dcm2niix",
  "ConversionSoftwareVersion": "v1.0.20190410  GCC6.3.0",
  "DerivedVendorReportedEchoSpacing": 0.000489993,
  "DeviceSerialNumber": "35256",
  "DwellTime": 2.4e-06,
  "EchoTime": 0.03,
  "EffectiveEchoSpacing": 0.000489993,
  "FlipAngle": 70,
  "ImageOrientationPatientDICOM": [1, 0, 0, 0, 1, 0],
  "ImageType": [
    "ORIGINAL",
    "PRIMARY",
    "M",
    "ND",
    "NORM",
    "MOSAIC"
],
  "ImagingFrequency": 123.223,
  "InPlanePhaseEncodingDirectionDICOM": "COL",
  "InstitutionAddress": "East_Lee_St._2907_Greensboro_NC_US_27401",
  "InstitutionName": "JSNN",
  "InstitutionalDepartmentName": "Department",
  "MRAcquisitionType": "2D",
  "MagneticFieldStrength": 3,
  "Manufacturer": "Siemens",
  "ManufacturersModelName": "TrioTim",
  "Modality": "MR",
  "PartialFourier": 1,
  "PatientPosition": "HFS",
  "PercentPhaseFOV": 100,
  "PhaseEncodingDirection": "j-",
  "PhaseEncodingSteps": 74,
  "PhaseResolution": 1,
  "PixelBandwidth": 2815,
  "ProcedureStepDescription": "head_Cassidy",
  "ProtocolName": "RestingState",
  "PulseSequenceDetails": "%SiemensSeq%_ep2d_bold",
  "ReceiveCoilName": "HeadMatrix",
  "ReconMatrixPE": 74,
  "RepetitionTime": 2,
  "SAR": 0.0433445,
  "ScanOptions": "FS",
  "ScanningSequence": "EP",
  "SequenceName": "_epfid2d1_74",
  "SequenceVariant": "SK",
  "SeriesDescription": "RestingState",
  "SeriesNumber": 3,
  "ShimSetting": [1396, 10538, -8687, 601, -67, -330, 381, -5],
  "SliceThickness": 4,
  "SliceTiming": [1.945, 1.8825, 1.8175, 1.755, 1.6925, 1.63, 1.5675, 1.505, 1.4425, 1.38, 1.3175, 1.255, 1.19, 1.1275, 1.065, 1.0025, 0.94, 0.8775, 0.815, 0.7525, 0.69, 0.6275, 0.565, 0.5, 0.4375, 0.375, 0.3125, 0.25, 0.1875, 0.125, 0.0625, 0],
  "SoftwareVersions": "syngo_MR_B19",
  "SpacingBetweenSlices": 4,
  "StationName": "JSNNMRI",
  "TaskName": "rest",
  "TotalReadoutTime": 0.0357695,
  "TxRefAmp": 269.377,
  "dcmmeta_affine": [
    [-2.972972869873047, 0.0, 0.0, 105.18071746826172],
    [0.0, 2.972972869873047, 0.0, -89.55714416503906],
    [0.0, 0.0, 3.999999761581421, -38.50602340698242],
    [0.0, 0.0, 0.0, 1.0]
],
  "dcmmeta_reorient_transform": [
    [0.0, -1.0, 0.0, 73.0],
    [1.0, 0.0, 0.0, 0.0],
    [0.0, 0.0, 1.0, 0.0],
    [0.0, 0.0, 0.0, 1.0]
],
  "dcmmeta_shape": [74, 74, 32, 300],
  "dcmmeta_slice_dim": 2,
  "dcmmeta_version": 0.6,
  "global": {
    "const": {
      "AcquisitionMatrix": [74, 0, 0, 74],
      "AngioFlag": "N",
      "BitsAllocated": 16,
      "BitsStored": 12,
      "BodyPartExamined": "HEAD",
      "Columns": 444,
      "EchoNumbers": 1,
      "EchoTime": 30.0,
      "EchoTrainLength": 1,
      "FlipAngle": 70.0,
      "HighBit": 11,
      "ImageOrientationPatient": [1.0, 0.0, 0.0, 0.0, 1.0, 0.0],
      "ImagePositionPatient": [-655.18069982529, -677.46985626221, -38.506023406982],
      "ImageType": [
        "ORIGINAL",
        "PRIMARY",
        "M",
        "ND",
        "NORM",
        "MOSAIC"
],
      "ImagedNucleus": "1H",
      "ImagingFrequency": 123.222645,
      "InPlanePhaseEncodingDirection": "COL",
      "MRAcquisitionType": "2D",
      "MagneticFieldStrength": 3.0,
      "Manufacturer": "SIEMENS",
      "ManufacturerModelName": "TrioTim",
      "Modality": "MR",
      "NumberOfAverages": 1.0,
      "NumberOfPhaseEncodingSteps": 74,
      "PercentPhaseFieldOfView": 100.0,
      "PercentSampling": 100.0,
      "PerformedProcedureStepStartTime": "090614.070000",
      "PhotometricInterpretation": "MONOCHROME2",
      "PixelBandwidth": 2815.0,
      "PixelRepresentation": 0,
      "PixelSpacing": [2.972972869873, 2.972972869873],
      "ProtocolName": "RestingState",
      "RepetitionTime": 2000.0,
      "Rows": 444,
      "SAR": 0.04334448273302,
      "SamplesPerPixel": 1,
      "ScanOptions": "FS",
      "ScanningSequence": "EP",
      "SequenceName": "*epfid2d1_74",
      "SequenceVariant": "SK",
      "SeriesDescription": "RestingState",
      "SeriesNumber": 3,
      "SeriesTime": "094918.020000",
      "SliceLocation": -38.506023406982,
      "SliceThickness": 4.0,
      "SmallestImagePixelValue": 0,
      "SoftwareVersions": "syngo MR B19",
      "SpacingBetweenSlices": 3.9999998769452,
      "SpecificCharacterSet": "ISO_IR 100",
      "StudyID": "1",
      "StudyTime": "090613.972000",
      "TransmitCoilName": "Body",
      "VariableFlipAngleFlag": "N",
      "WindowCenterWidthExplanation": "Algo1",
      "dBdt": 0.0},
    "slices": {}
  },
  "time": {
    "samples": {
      "AcquisitionNumber": [1, 2, 3, 4, 5, 6, 7, 8, 9, 10, 11, 12, 13, 14, 15, 16, 17, 18, 19, 20, 21, 22, 23, 24, 25, 26, 27, 28, 29, 30, 31, 32, 33, 34, 35, 36, 37, 38, 39, 40, 41, 42, 43, 44, 45, 46, 47, 48, 49, 50, 51, 52, 53, 54, 55, 56, 57, 58, 59, 60, 61, 62, 63, 64, 65, 66, 67, 68, 69, 70, 71, 72, 73, 74, 75, 76, 77, 78, 79, 80, 81, 82, 83, 84, 85, 86, 87, 88, 89, 90, 91, 92, 93, 94, 95, 96, 97, 98, 99, 100, 101, 102, 103, 104, 105, 106, 107, 108, 109, 110, 111, 112, 113, 114, 115, 116, 117, 118, 119, 120, 121, 122, 123, 124, 125, 126, 127, 128, 129, 130, 131, 132, 133, 134, 135, 136, 137, 138, 139, 140, 141, 142, 143, 144, 145, 146, 147, 148, 149, 150, 151, 152, 153, 154, 155, 156, 157, 158, 159, 160, 161, 162, 163, 164, 165, 166, 167, 168, 169, 170, 171, 172, 173, 174, 175, 176, 177, 178, 179, 180, 181, 182, 183, 184, 185, 186, 187, 188, 189, 190, 191, 192, 193, 194, 195, 196, 197, 198, 199, 200, 201, 202, 203, 204, 205, 206, 207, 208, 209, 210, 211, 212, 213, 214, 215, 216, 217, 218, 219, 220, 221, 222, 223, 224, 225, 226, 227, 228, 229, 230, 231, 232, 233, 234, 235, 236, 237, 238, 239, 240, 241, 242, 243, 244, 245, 246, 247, 248, 249, 250, 251, 252, 253, 254, 255, 256, 257, 258, 259, 260, 261, 262, 263, 264, 265, 266, 267, 268, 269, 270, 271, 272, 273, 274, 275, 276, 277, 278, 279, 280, 281, 282, 283, 284, 285, 286, 287, 288, 289, 290, 291, 292, 293, 294, 295, 296, 297, 298, 299, 300],
      "AcquisitionTime": ["094831.282500", "094833.290000", "094835.297500", "094837.305000", "094839.312500", "094841.322500", "094843.330000", "094845.337500", "094847.345000", "094849.355000", "094851.362500", "094853.370000", "094855.377500", "094857.385000", "094859.395000", "094901.402500", "094903.410000", "094905.417500", "094907.425000", "094909.435000", "094911.442500", "094913.450000", "094915.457500", "094917.467500", "094919.475000", "094921.482500", "094923.490000", "094925.497500", "094927.507500", "094929.515000", "094931.522500", "094933.530000", "094935.537500", "094937.547500", "094939.555000", "094941.562500", "094943.570000", "094945.577500", "094947.587500", "094949.595000", "094951.602500", "094953.610000", "094955.620000", "094957.627500", "094959.635000", "095001.642500", "095003.650000", "095005.660000", "095007.667500", "095009.675000", "095011.682500", "095013.690000", "095015.700000", "095017.707500", "095019.715000", "095021.722500", "095023.732500", "095025.740000", "095027.747500", "095029.755000", "095031.762500", "095033.772500", "095035.780000", "095037.787500", "095039.795000", "095041.802500", "095043.812500", "095045.820000", "095047.827500", "095049.835000", "095051.845000", "095053.852500", "095055.860000", "095057.867500", "095059.875000", "095101.885000", "095103.892500", "095105.900000", "095107.907500", "095109.915000", "095111.925000", "095113.932500", "095115.940000", "095117.947500", "095119.955000", "095121.965000", "095123.972500", "095125.980000", "095127.987500", "095129.997500", "095132.005000", "095134.012500", "095136.020000", "095138.027500", "095140.037500", "095142.045000", "095144.052500", "095146.060000", "095148.067500", "095150.077500", "095152.085000", "095154.092500", "095156.100000", "095158.110000", "095200.117500", "095202.125000", "095204.132500", "095206.140000", "095208.150000", "095210.157500", "095212.165000", "095214.172500", "095216.180000", "095218.190000", "095220.197500", "095222.205000", "095224.212500", "095226.222500", "095228.230000", "095230.237500", "095232.245000", "095234.252500", "095236.262500", "095238.270000", "095240.277500", "095242.285000", "095244.292500", "095246.302500", "095248.310000", "095250.317500", "095252.325000", "095254.332500", "095256.342500", "095258.350000", "095300.357500", "095302.365000", "095304.375000", "095306.382500", "095308.390000", "095310.397500", "095312.405000", "095314.415000", "095316.422500", "095318.430000", "095320.437500", "095322.445000", "095324.455000", "095326.462500", "095328.470000", "095330.477500", "095332.487500", "095334.495000", "095336.502500", "095338.510000", "095340.517500", "095342.527500", "095344.535000", "095346.542500", "095348.550000", "095350.557500", "095352.567500", "095354.575000", "095356.582500", "095358.590000", "095400.600000", "095402.607500", "095404.615000", "095406.622500", "095408.630000", "095410.640000", "095412.647500", "095414.655000", "095416.662500", "095418.670000", "095420.680000", "095422.687500", "095424.695000", "095426.702500", "095428.710000", "095430.720000", "095432.727500", "095434.735000", "095436.742500", "095438.752500", "095440.760000", "095442.767500", "095444.775000", "095446.782500", "095448.792500", "095450.800000", "095452.807500", "095454.815000", "095456.822500", "095458.832500", "095500.840000", "095502.847500", "095504.855000", "095506.865000", "095508.872500", "095510.880000", "095512.887500", "095514.895000", "095516.905000", "095518.912500", "095520.920000", "095522.927500", "095524.935000", "095526.945000", "095528.952500", "095530.960000", "095532.967500", "095534.977500", "095536.985000", "095538.992500", "095541.000000", "095543.007500", "095545.017500", "095547.025000", "095549.032500", "095551.040000", "095553.047500", "095555.057500", "095557.065000", "095559.072500", "095601.080000", "095603.087500", "095605.097500", "095607.105000", "095609.112500", "095611.120000", "095613.130000", "095615.137500", "095617.145000", "095619.152500", "095621.160000", "095623.170000", "095625.177500", "095627.185000", "095629.192500", "095631.200000", "095633.210000", "095635.217500", "095637.225000", "095639.232500", "095641.242500", "095643.250000", "095645.257500", "095647.265000", "095649.272500", "095651.282500", "095653.290000", "095655.297500", "095657.305000", "095659.312500", "095701.322500", "095703.330000", "095705.337500", "095707.345000", "095709.355000", "095711.362500", "095713.370000", "095715.377500", "095717.385000", "095719.395000", "095721.402500", "095723.410000", "095725.417500", "095727.425000", "095729.435000", "095731.442500", "095733.450000", "095735.457500", "095737.467500", "095739.475000", "095741.482500", "095743.490000", "095745.497500", "095747.507500", "095749.515000", "095751.522500", "095753.530000", "095755.537500", "095757.547500", "095759.555000", "095801.562500", "095803.570000", "095805.577500", "095807.587500", "095809.595000", "095811.602500", "095813.610000", "095815.620000", "095817.627500", "095819.635000", "095821.642500", "095823.650000", "095825.660000", "095827.667500", "095829.675000", "095831.682500"],
      "ContentTime": ["094918.025000", "094918.027000", "094918.027000", "094918.030000", "094918.032000", "094918.035000", "094918.035000", "094918.040000", "094918.042000", "094918.045000", "094918.047000", "094918.047000", "094918.050000", "094918.052000", "094918.060000", "094918.060000", "094918.067000", "094918.067000", "094918.070000", "094918.072000", "094918.075000", "094918.075000", "094918.077000", "094958.018000", "094958.020000", "094958.023000", "094958.023000", "094958.025000", "094958.028000", "094958.030000", "094958.030000", "094958.033000", "094958.035000", "094958.038000", "094958.038000", "094958.040000", "094958.043000", "094958.045000", "094958.048000", "094958.048000", "094958.055000", "094958.055000", "094958.058000", "095038.019000", "095038.019000", "095038.021000", "095038.024000", "095038.026000", "095038.029000", "095038.029000", "095038.031000", "095038.034000", "095038.036000", "095038.036000", "095038.039000", "095038.041000", "095038.044000", "095038.044000", "095038.046000", "095038.049000", "095038.051000", "095038.054000", "095038.054000", "095118.017000", "095118.019000", "095118.022000", "095118.024000", "095118.027000", "095118.029000", "095118.032000", "095118.032000", "095118.034000", "095118.037000", "095118.039000", "095118.039000", "095118.042000", "095118.044000", "095118.047000", "095118.047000", "095118.049000", "095118.052000", "095118.054000", "095118.054000", "095158.017000", "095158.020000", "095158.022000", "095158.025000", "095158.027000", "095158.030000", "095158.030000", "095158.032000", "095158.035000", "095158.037000", "095158.037000", "095158.040000", "095158.042000", "095158.045000", "095158.045000", "095158.047000", "095158.050000", "095158.052000", "095158.055000", "095158.055000", "095238.018000", "095238.020000", "095238.020000", "095238.023000", "095238.025000", "095238.028000", "095238.030000", "095238.030000", "095238.033000", "095238.035000", "095238.038000", "095238.038000", "095238.040000", "095238.043000", "095238.045000", "095238.045000", "095238.048000", "095238.050000", "095238.053000", "095238.055000", "095318.019000", "095318.021000", "095318.024000", "095318.024000", "095318.026000", "095318.029000", "095318.031000", "095318.031000", "095318.034000", "095318.036000", "095318.039000", "095318.041000", "095318.041000", "095318.044000", "095318.046000", "095318.049000", "095318.049000", "095318.051000", "095318.054000", "095318.056000", "095358.019000", "095358.022000", "095358.022000", "095358.024000", "095358.027000", "095358.029000", "095358.032000", "095358.032000", "095358.034000", "095358.037000", "095358.039000", "095358.039000", "095358.042000", "095358.044000", "095358.047000", "095358.047000", "095358.049000", "095358.052000", "095358.054000", "095358.054000", "095438.017000", "095438.020000", "095438.022000", "095438.025000", "095438.027000", "095438.030000", "095438.045000", "095438.047000", "095438.050000", "095438.050000", "095438.052000", "095438.055000", "095438.057000", "095438.057000", "095438.060000", "095438.062000", "095438.065000", "095438.065000", "095438.067000", "095438.070000", "095458.018000", "095458.018000", "095458.020000", "095458.023000", "095458.025000", "095458.028000", "095458.030000", "095458.030000", "095458.033000", "095458.035000", "095538.018000", "095538.018000", "095538.021000", "095538.023000", "095538.026000", "095538.028000", "095538.031000", "095538.031000", "095538.033000", "095538.036000", "095538.038000", "095538.038000", "095538.041000", "095538.043000", "095538.046000", "095538.046000", "095538.048000", "095538.051000", "095538.053000", "095538.053000", "095618.019000", "095618.021000", "095618.024000", "095618.024000", "095618.026000", "095618.029000", "095618.031000", "095618.031000", "095618.034000", "095618.036000", "095618.039000", "095618.041000", "095618.041000", "095618.044000", "095618.046000", "095618.049000", "095618.049000", "095618.051000", "095618.054000", "095618.056000", "095658.019000", "095658.022000", "095658.022000", "095658.024000", "095658.027000", "095658.029000", "095658.032000", "095658.032000", "095658.034000", "095658.037000", "095658.039000", "095658.039000", "095658.042000", "095658.044000", "095658.047000", "095658.047000", "095658.049000", "095658.052000", "095658.054000", "095658.054000", "095738.018000", "095738.018000", "095738.020000", "095738.023000", "095738.025000", "095738.028000", "095738.030000", "095738.030000", "095738.033000", "095738.035000", "095738.038000", "095738.038000", "095738.040000", "095738.043000", "095738.045000", "095738.045000", "095738.048000", "095738.050000", "095738.053000", "095738.053000", "095818.018000", "095818.018000", "095818.021000", "095818.023000", "095818.026000", "095818.028000", "095818.031000", "095818.031000", "095818.033000", "095818.036000", "095818.038000", "095818.038000", "095818.041000", "095818.043000", "095818.046000", "095818.046000", "095818.048000", "095818.051000", "095818.053000", "095818.056000", "095830.031000", "095830.033000", "095830.036000", "095830.038000", "095830.038000", "095830.041000", "095830.043000"],
      "InstanceCreationTime": ["094918.025000", "094918.027000", "094918.027000", "094918.030000", "094918.032000", "094918.035000", "094918.035000", "094918.040000", "094918.042000", "094918.045000", "094918.047000", "094918.047000", "094918.050000", "094918.052000", "094918.060000", "094918.060000", "094918.067000", "094918.067000", "094918.070000", "094918.072000", "094918.075000", "094918.075000", "094918.077000", "094958.018000", "094958.020000", "094958.023000", "094958.023000", "094958.025000", "094958.028000", "094958.030000", "094958.030000", "094958.033000", "094958.035000", "094958.038000", "094958.038000", "094958.040000", "094958.043000", "094958.045000", "094958.048000", "094958.048000", "094958.055000", "094958.055000", "094958.058000", "095038.019000", "095038.019000", "095038.021000", "095038.024000", "095038.026000", "095038.029000", "095038.029000", "095038.031000", "095038.034000", "095038.036000", "095038.036000", "095038.039000", "095038.041000", "095038.044000", "095038.044000", "095038.046000", "095038.049000", "095038.051000", "095038.054000", "095038.054000", "095118.017000", "095118.019000", "095118.022000", "095118.024000", "095118.027000", "095118.029000", "095118.032000", "095118.032000", "095118.034000", "095118.037000", "095118.039000", "095118.039000", "095118.042000", "095118.044000", "095118.047000", "095118.047000", "095118.049000", "095118.052000", "095118.054000", "095118.054000", "095158.017000", "095158.020000", "095158.022000", "095158.025000", "095158.027000", "095158.030000", "095158.030000", "095158.032000", "095158.035000", "095158.037000", "095158.037000", "095158.040000", "095158.042000", "095158.045000", "095158.045000", "095158.047000", "095158.050000", "095158.052000", "095158.055000", "095158.055000", "095238.018000", "095238.020000", "095238.020000", "095238.023000", "095238.025000", "095238.028000", "095238.030000", "095238.030000", "095238.033000", "095238.035000", "095238.038000", "095238.038000", "095238.040000", "095238.043000", "095238.045000", "095238.045000", "095238.048000", "095238.050000", "095238.053000", "095238.055000", "095318.019000", "095318.021000", "095318.024000", "095318.024000", "095318.026000", "095318.029000", "095318.031000", "095318.031000", "095318.034000", "095318.036000", "095318.039000", "095318.041000", "095318.041000", "095318.044000", "095318.046000", "095318.049000", "095318.049000", "095318.051000", "095318.054000", "095318.056000", "095358.019000", "095358.022000", "095358.022000", "095358.024000", "095358.027000", "095358.029000", "095358.032000", "095358.032000", "095358.034000", "095358.037000", "095358.039000", "095358.039000", "095358.042000", "095358.044000", "095358.047000", "095358.047000", "095358.049000", "095358.052000", "095358.054000", "095358.054000", "095438.017000", "095438.020000", "095438.022000", "095438.025000", "095438.027000", "095438.030000", "095438.045000", "095438.047000", "095438.050000", "095438.050000", "095438.052000", "095438.055000", "095438.057000", "095438.057000", "095438.060000", "095438.062000", "095438.065000", "095438.065000", "095438.067000", "095438.070000", "095458.018000", "095458.018000", "095458.020000", "095458.023000", "095458.025000", "095458.028000", "095458.030000", "095458.030000", "095458.033000", "095458.035000", "095538.018000", "095538.018000", "095538.021000", "095538.023000", "095538.026000", "095538.028000", "095538.031000", "095538.031000", "095538.033000", "095538.036000", "095538.038000", "095538.038000", "095538.041000", "095538.043000", "095538.046000", "095538.046000", "095538.048000", "095538.051000", "095538.053000", "095538.053000", "095618.019000", "095618.021000", "095618.024000", "095618.024000", "095618.026000", "095618.029000", "095618.031000", "095618.031000", "095618.034000", "095618.036000", "095618.039000", "095618.041000", "095618.041000", "095618.044000", "095618.046000", "095618.049000", "095618.049000", "095618.051000", "095618.054000", "095618.056000", "095658.019000", "095658.022000", "095658.022000", "095658.024000", "095658.027000", "095658.029000", "095658.032000", "095658.032000", "095658.034000", "095658.037000", "095658.039000", "095658.039000", "095658.042000", "095658.044000", "095658.047000", "095658.047000", "095658.049000", "095658.052000", "095658.054000", "095658.054000", "095738.018000", "095738.018000", "095738.020000", "095738.023000", "095738.025000", "095738.028000", "095738.030000", "095738.030000", "095738.033000", "095738.035000", "095738.038000", "095738.038000", "095738.040000", "095738.043000", "095738.045000", "095738.045000", "095738.048000", "095738.050000", "095738.053000", "095738.053000", "095818.018000", "095818.018000", "095818.021000", "095818.023000", "095818.026000", "095818.028000", "095818.031000", "095818.031000", "095818.033000", "095818.036000", "095818.038000", "095818.038000", "095818.041000", "095818.043000", "095818.046000", "095818.046000", "095818.048000", "095818.051000", "095818.053000", "095818.056000", "095830.031000", "095830.033000", "095830.036000", "095830.038000", "095830.038000", "095830.041000", "095830.043000"],
      "InstanceNumber": [1, 2, 3, 4, 5, 6, 7, 8, 9, 10, 11, 12, 13, 14, 15, 16, 17, 18, 19, 20, 21, 22, 23, 24, 25, 26, 27, 28, 29, 30, 31, 32, 33, 34, 35, 36, 37, 38, 39, 40, 41, 42, 43, 44, 45, 46, 47, 48, 49, 50, 51, 52, 53, 54, 55, 56, 57, 58, 59, 60, 61, 62, 63, 64, 65, 66, 67, 68, 69, 70, 71, 72, 73, 74, 75, 76, 77, 78, 79, 80, 81, 82, 83, 84, 85, 86, 87, 88, 89, 90, 91, 92, 93, 94, 95, 96, 97, 98, 99, 100, 101, 102, 103, 104, 105, 106, 107, 108, 109, 110, 111, 112, 113, 114, 115, 116, 117, 118, 119, 120, 121, 122, 123, 124, 125, 126, 127, 128, 129, 130, 131, 132, 133, 134, 135, 136, 137, 138, 139, 140, 141, 142, 143, 144, 145, 146, 147, 148, 149, 150, 151, 152, 153, 154, 155, 156, 157, 158, 159, 160, 161, 162, 163, 164, 165, 166, 167, 168, 169, 170, 171, 172, 173, 174, 175, 176, 177, 178, 179, 180, 181, 182, 183, 184, 185, 186, 187, 188, 189, 190, 191, 192, 193, 194, 195, 196, 197, 198, 199, 200, 201, 202, 203, 204, 205, 206, 207, 208, 209, 210, 211, 212, 213, 214, 215, 216, 217, 218, 219, 220, 221, 222, 223, 224, 225, 226, 227, 228, 229, 230, 231, 232, 233, 234, 235, 236, 237, 238, 239, 240, 241, 242, 243, 244, 245, 246, 247, 248, 249, 250, 251, 252, 253, 254, 255, 256, 257, 258, 259, 260, 261, 262, 263, 264, 265, 266, 267, 268, 269, 270, 271, 272, 273, 274, 275, 276, 277, 278, 279, 280, 281, 282, 283, 284, 285, 286, 287, 288, 289, 290, 291, 292, 293, 294, 295, 296, 297, 298, 299, 300],
      "LargestImagePixelValue": [1739, 1603, 1658, 1598, 1572, 1582, 1664, 1597, 1703, 1597, 1641, 1650, 1602, 1639, 1824, 1589, 1596, 1826, 1656, 1674, 1569, 1630, 1588, 1621, 1747, 1636, 1693, 1598, 1724, 1612, 1608, 1647, 1595, 1653, 1627, 1696, 1650, 1641, 1634, 1696, 1603, 1633, 1653, 1647, 1624, 1652, 1604, 1654, 1613, 1640, 1910, 1588, 1648, 1654, 1707, 1630, 1738, 1592, 1640, 1644, 1690, 1744, 1638, 1645, 1715, 1661, 1626, 1636, 1649, 1959, 1628, 1837, 1656, 1729, 1692, 1825, 1677, 1769, 1660, 1622, 1630, 1626, 1651, 1602, 1706, 2054, 1667, 1615, 1648, 1653, 1660, 1621, 1682, 1625, 1665, 1620, 1705, 1697, 1688, 1868, 1639, 1719, 1628, 1699, 1650, 1664, 1656, 1693, 1656, 1760, 1704, 1960, 1699, 1755, 1653, 1745, 1659, 1687, 1668, 1661, 1648, 1713, 1656, 1714, 1705, 1669, 1680, 1642, 1686, 1652, 1633, 1743, 1662, 1687, 1644, 1669, 1670, 1722, 1794, 1645, 1674, 1663, 1662, 1664, 1660, 1653, 1702, 1640, 1680, 1629, 1697, 1659, 1671, 1701, 1662, 1661, 1706, 1673, 1709, 2015, 1673, 1675, 1676, 1650, 1661, 1782, 1653, 1675, 1651, 1668, 1637, 1700, 1669, 1693, 1672, 1687, 1666, 1697, 1737, 1716, 1805, 1694, 1680, 1706, 1915, 1656, 1765, 1737, 1727, 1673, 1677, 1683, 1662, 1669, 1705, 1723, 1683, 1691, 1691, 1812, 1696, 1773, 1651, 1699, 1693, 1696, 1751, 1685, 1953, 1671, 1734, 1659, 1649, 1799, 1698, 1755, 1739, 1676, 1675, 1749, 1665, 1680, 1725, 1680, 1677, 1689, 1696, 1761, 1697, 1697, 1790, 1692, 1836, 1685, 1665, 1734, 1692, 1678, 1678, 1656, 1680, 1664, 1680, 1670, 1696, 1704, 1683, 1702, 1750, 1814, 1671, 1719, 1715, 1704, 1694, 1699, 1869, 1731, 1785, 1715, 1758, 1689, 1882, 1718, 1715, 1710, 1699, 1622, 1715, 1701, 1692, 1648, 1670, 1703, 1699, 1730, 1767, 1755, 1714, 1702, 1695, 1735, 1704, 1734, 1759, 1761, 1726, 1708, 1684, 1715, 1694, 1803, 1728, 1696, 1702, 1695, 1696, 1687, 1691, 1678],
      "WindowCenter": [634.0, 632.0, 634.0, 634.0, 632.0, 632.0, 633.0, 632.0, 635.0, 635.0, 634.0, 635.0, 636.0, 635.0, 634.0, 632.0, 632.0, 632.0, 634.0, 634.0, 632.0, 636.0, 635.0, 633.0, 635.0, 634.0, 634.0, 632.0, 635.0, 635.0, 634.0, 633.0, 633.0, 635.0, 634.0, 634.0, 635.0, 635.0, 634.0, 636.0, 635.0, 635.0, 636.0, 636.0, 634.0, 636.0, 634.0, 633.0, 634.0, 634.0, 636.0, 634.0, 634.0, 635.0, 636.0, 634.0, 636.0, 635.0, 634.0, 636.0, 635.0, 634.0, 635.0, 635.0, 636.0, 635.0, 634.0, 636.0, 635.0, 636.0, 635.0, 636.0, 636.0, 636.0, 635.0, 637.0, 635.0, 636.0, 635.0, 635.0, 637.0, 636.0, 636.0, 636.0, 636.0, 638.0, 634.0, 633.0, 637.0, 636.0, 636.0, 637.0, 637.0, 635.0, 637.0, 636.0, 636.0, 637.0, 636.0, 636.0, 636.0, 637.0, 637.0, 637.0, 636.0, 636.0, 637.0, 636.0, 636.0, 638.0, 637.0, 639.0, 637.0, 636.0, 637.0, 636.0, 636.0, 636.0, 636.0, 637.0, 636.0, 636.0, 637.0, 636.0, 638.0, 638.0, 637.0, 636.0, 638.0, 637.0, 637.0, 638.0, 638.0, 637.0, 637.0, 637.0, 637.0, 639.0, 639.0, 637.0, 638.0, 637.0, 638.0, 638.0, 637.0, 639.0, 638.0, 637.0, 637.0, 637.0, 638.0, 637.0, 637.0, 638.0, 639.0, 639.0, 639.0, 639.0, 639.0, 640.0, 639.0, 638.0, 637.0, 638.0, 638.0, 640.0, 638.0, 639.0, 639.0, 639.0, 640.0, 639.0, 639.0, 639.0, 639.0, 639.0, 638.0, 638.0, 638.0, 640.0, 639.0, 639.0, 640.0, 639.0, 641.0, 639.0, 639.0, 639.0, 639.0, 638.0, 639.0, 639.0, 639.0, 639.0, 640.0, 641.0, 641.0, 640.0, 641.0, 640.0, 639.0, 639.0, 638.0, 640.0, 640.0, 641.0, 641.0, 639.0, 642.0, 640.0, 640.0, 639.0, 639.0, 641.0, 641.0, 640.0, 641.0, 640.0, 640.0, 642.0, 641.0, 641.0, 642.0, 641.0, 642.0, 641.0, 641.0, 641.0, 640.0, 639.0, 641.0, 640.0, 641.0, 640.0, 640.0, 642.0, 641.0, 641.0, 641.0, 641.0, 641.0, 641.0, 642.0, 642.0, 641.0, 642.0, 642.0, 642.0, 642.0, 642.0, 641.0, 642.0, 641.0, 641.0, 642.0, 641.0, 642.0, 642.0, 642.0, 642.0, 643.0, 642.0, 642.0, 641.0, 641.0, 641.0, 641.0, 641.0, 643.0, 642.0, 642.0, 642.0, 642.0, 643.0, 642.0, 642.0, 643.0, 643.0, 643.0, 642.0, 642.0, 643.0, 642.0, 642.0, 643.0, 642.0, 643.0, 643.0, 643.0, 644.0, 643.0, 644.0, 643.0, 643.0, 643.0, 642.0, 642.0, 642.0, 643.0, 643.0],
      "WindowWidth": [1348.0, 1342.0, 1347.0, 1346.0, 1341.0, 1341.0, 1344.0, 1341.0, 1350.0, 1349.0, 1347.0, 1348.0, 1351.0, 1349.0, 1347.0, 1342.0, 1341.0, 1342.0, 1347.0, 1347.0, 1342.0, 1351.0, 1348.0, 1345.0, 1349.0, 1348.0, 1346.0, 1342.0, 1350.0, 1349.0, 1346.0, 1344.0, 1343.0, 1349.0, 1347.0, 1347.0, 1348.0, 1350.0, 1347.0, 1351.0, 1349.0, 1350.0, 1351.0, 1351.0, 1348.0, 1350.0, 1348.0, 1345.0, 1347.0, 1346.0, 1350.0, 1347.0, 1346.0, 1350.0, 1351.0, 1347.0, 1352.0, 1349.0, 1347.0, 1351.0, 1348.0, 1347.0, 1350.0, 1348.0, 1352.0, 1349.0, 1347.0, 1351.0, 1349.0, 1351.0, 1350.0, 1351.0, 1350.0, 1352.0, 1349.0, 1353.0, 1349.0, 1351.0, 1350.0, 1349.0, 1354.0, 1351.0, 1352.0, 1352.0, 1351.0, 1357.0, 1347.0, 1345.0, 1353.0, 1352.0, 1351.0, 1355.0, 1353.0, 1350.0, 1355.0, 1352.0, 1351.0, 1355.0, 1352.0, 1351.0, 1353.0, 1353.0, 1353.0, 1353.0, 1352.0, 1352.0, 1353.0, 1352.0, 1352.0, 1355.0, 1353.0, 1357.0, 1353.0, 1352.0, 1354.0, 1352.0, 1351.0, 1353.0, 1350.0, 1353.0, 1353.0, 1352.0, 1354.0, 1352.0, 1355.0, 1357.0, 1354.0, 1350.0, 1356.0, 1355.0, 1354.0, 1357.0, 1356.0, 1354.0, 1355.0, 1354.0, 1354.0, 1358.0, 1358.0, 1354.0, 1357.0, 1355.0, 1356.0, 1356.0, 1354.0, 1358.0, 1356.0, 1355.0, 1355.0, 1354.0, 1356.0, 1355.0, 1354.0, 1356.0, 1358.0, 1358.0, 1360.0, 1359.0, 1358.0, 1360.0, 1358.0, 1357.0, 1355.0, 1356.0, 1355.0, 1361.0, 1357.0, 1359.0, 1359.0, 1358.0, 1360.0, 1359.0, 1360.0, 1360.0, 1360.0, 1360.0, 1357.0, 1357.0, 1357.0, 1361.0, 1360.0, 1359.0, 1361.0, 1360.0, 1364.0, 1359.0, 1358.0, 1360.0, 1359.0, 1357.0, 1360.0, 1358.0, 1358.0, 1360.0, 1362.0, 1364.0, 1363.0, 1362.0, 1364.0, 1362.0, 1359.0, 1359.0, 1357.0, 1362.0, 1361.0, 1363.0, 1363.0, 1360.0, 1365.0, 1360.0, 1361.0, 1360.0, 1360.0, 1365.0, 1363.0, 1362.0, 1363.0, 1362.0, 1361.0, 1366.0, 1364.0, 1364.0, 1366.0, 1364.0, 1365.0, 1365.0, 1364.0, 1364.0, 1362.0, 1360.0, 1363.0, 1362.0, 1364.0, 1363.0, 1362.0, 1365.0, 1363.0, 1363.0, 1365.0, 1365.0, 1364.0, 1364.0, 1365.0, 1367.0, 1365.0, 1366.0, 1367.0, 1366.0, 1366.0, 1367.0, 1364.0, 1366.0, 1365.0, 1364.0, 1366.0, 1365.0, 1367.0, 1366.0, 1367.0, 1366.0, 1368.0, 1366.0, 1366.0, 1364.0, 1364.0, 1364.0, 1365.0, 1364.0, 1368.0, 1367.0, 1367.0, 1367.0, 1366.0, 1369.0, 1368.0, 1366.0, 1369.0, 1368.0, 1369.0, 1368.0, 1367.0, 1370.0, 1368.0, 1367.0, 1370.0, 1368.0, 1369.0, 1370.0, 1368.0, 1371.0, 1369.0, 1370.0, 1370.0, 1368.0, 1368.0, 1368.0, 1366.0, 1368.0, 1369.0, 1368.0]
    },
    "slices": {}
  }
}