{
  "AcquisitionMatrixPE": 74,
  "AcquisitionNumber": 1,
  "AcquisitionTime": "09:54:23.832500",
  "BandwidthPerPixelPhaseEncode": 27.579,
  "BaseResolution": 74,
  "BodyPartExamined": "HEAD",
  "CoilString": "t:HEA;HEP",
  "ConversionSoftware": "dcm2niix",
  "ConversionSoftwareVersion": "v1.0.20190410  GCC6.3.0",
  "DerivedVendorReportedEchoSpacing": 0.000489993,
  "DeviceSerialNumber": "35256",
  "DwellTime": 2.4e-06,
  "EchoTime": 0.03,
  "EffectiveEchoSpacing": 0.000489993,
  "FlipAngle": 70,
  "ImageOrientationPatientDICOM": [1, 0, 0, 0, 1, 0],
  "ImageType": [
    "ORIGINAL",
    "PRIMARY",
    "M",
    "ND",
    "NORM",
    "MOSAIC"
],
  "ImagingFrequency": 123.223,
  "InPlanePhaseEncodingDirectionDICOM": "COL",
  "InstitutionAddress": "East_Lee_St._2907_Greensboro_NC_US_27401",
  "InstitutionName": "JSNN",
  "InstitutionalDepartmentName": "Department",
  "MRAcquisitionType": "2D",
  "MagneticFieldStrength": 3,
  "Manufacturer": "Siemens",
  "ManufacturersModelName": "TrioTim",
  "Modality": "MR",
  "PartialFourier": 1,
  "PatientPosition": "HFS",
  "PercentPhaseFOV": 100,
  "PhaseEncodingDirection": "j-",
  "PhaseEncodingSteps": 74,
  "PhaseResolution": 1,
  "PixelBandwidth": 2815,
  "ProcedureStepDescription": "head_Cassidy",
  "ProtocolName": "RestingState",
  "PulseSequenceDetails": "%SiemensSeq%_ep2d_bold",
  "ReceiveCoilName": "HeadMatrix",
  "ReconMatrixPE": 74,
  "RepetitionTime": 2,
  "SAR": 0.0925035,
  "ScanOptions": "FS",
  "ScanningSequence": "EP",
  "SequenceName": "_epfid2d1_74",
  "SequenceVariant": "SK",
  "SeriesDescription": "RestingState",
  "SeriesNumber": 3,
  "ShimSetting": [1378, 10547, -8706, 616, 0, -564, -65, -95],
  "SliceThickness": 4,
  "SliceTiming": [1.9425, 1.88, 1.8175, 1.755, 1.6925, 1.63, 1.5675, 1.505, 1.4425, 1.38, 1.315, 1.2525, 1.19, 1.1275, 1.065, 1.0025, 0.94, 0.8775, 0.815, 0.7525, 0.69, 0.625, 0.5625, 0.5, 0.4375, 0.375, 0.3125, 0.25, 0.1875, 0.125, 0.0625, 0],
  "SoftwareVersions": "syngo_MR_B19",
  "SpacingBetweenSlices": 4,
  "StationName": "JSNNMRI",
  "TaskName": "rest",
  "TotalReadoutTime": 0.0357695,
  "TxRefAmp": 251.454,
  "dcmmeta_affine": [
    [-2.972972869873047, 0.0, 0.0, 105.18071746826172],
    [0.0, 2.972972869873047, 0.0, -101.33438110351562],
    [0.0, 0.0, 4.0, -45.324424743652344],
    [0.0, 0.0, 0.0, 1.0]
],
  "dcmmeta_reorient_transform": [
    [0.0, -1.0, 0.0, 73.0],
    [1.0, 0.0, 0.0, 0.0],
    [0.0, 0.0, 1.0, 0.0],
    [0.0, 0.0, 0.0, 1.0]
],
  "dcmmeta_shape": [74, 74, 32, 300],
  "dcmmeta_slice_dim": 2,
  "dcmmeta_version": 0.6,
  "global": {
    "const": {
      "AcquisitionMatrix": [74, 0, 0, 74],
      "AngioFlag": "N",
      "BitsAllocated": 16,
      "BitsStored": 12,
      "BodyPartExamined": "HEAD",
      "Columns": 444,
      "EchoNumbers": 1,
      "EchoTime": 30.0,
      "EchoTrainLength": 1,
      "FlipAngle": 70.0,
      "HighBit": 11,
      "ImageOrientationPatient": [1.0, 0.0, 0.0, 0.0, 1.0, 0.0],
      "ImagePositionPatient": [-655.18069982529, -665.69261693954, -45.324424743652],
      "ImageType": [
        "ORIGINAL",
        "PRIMARY",
        "M",
        "ND",
        "NORM",
        "MOSAIC"
],
      "ImagedNucleus": "1H",
      "ImagingFrequency": 123.223072,
      "InPlanePhaseEncodingDirection": "COL",
      "MRAcquisitionType": "2D",
      "MagneticFieldStrength": 3.0,
      "Manufacturer": "SIEMENS",
      "ManufacturerModelName": "TrioTim",
      "Modality": "MR",
      "NumberOfAverages": 1.0,
      "NumberOfPhaseEncodingSteps": 74,
      "PercentPhaseFieldOfView": 100.0,
      "PercentSampling": 100.0,
      "PerformedProcedureStepStartTime": "092946.984000",
      "PhotometricInterpretation": "MONOCHROME2",
      "PixelBandwidth": 2815.0,
      "PixelRepresentation": 0,
      "PixelSpacing": [2.972972869873, 2.972972869873],
      "ProtocolName": "RestingState",
      "RepetitionTime": 2000.0,
      "Rows": 444,
      "SAR": 0.0925034720834,
      "SamplesPerPixel": 1,
      "ScanOptions": "FS",
      "ScanningSequence": "EP",
      "SequenceName": "*epfid2d1_74",
      "SequenceVariant": "SK",
      "SeriesDescription": "RestingState",
      "SeriesNumber": 3,
      "SeriesTime": "095512.390000",
      "SliceLocation": -45.324424743652,
      "SliceThickness": 4.0,
      "SmallestImagePixelValue": 0,
      "SoftwareVersions": "syngo MR B19",
      "SpacingBetweenSlices": 4.0,
      "SpecificCharacterSet": "ISO_IR 100",
      "StudyID": "1",
      "StudyTime": "092946.968000",
      "TransmitCoilName": "Body",
      "VariableFlipAngleFlag": "N",
      "WindowCenterWidthExplanation": "Algo1",
      "dBdt": 0.0},
    "slices": {}
  },
  "time": {
    "samples": {
      "AcquisitionNumber": [1, 2, 3, 4, 5, 6, 7, 8, 9, 10, 11, 12, 13, 14, 15, 16, 17, 18, 19, 20, 21, 22, 23, 24, 25, 26, 27, 28, 29, 30, 31, 32, 33, 34, 35, 36, 37, 38, 39, 40, 41, 42, 43, 44, 45, 46, 47, 48, 49, 50, 51, 52, 53, 54, 55, 56, 57, 58, 59, 60, 61, 62, 63, 64, 65, 66, 67, 68, 69, 70, 71, 72, 73, 74, 75, 76, 77, 78, 79, 80, 81, 82, 83, 84, 85, 86, 87, 88, 89, 90, 91, 92, 93, 94, 95, 96, 97, 98, 99, 100, 101, 102, 103, 104, 105, 106, 107, 108, 109, 110, 111, 112, 113, 114, 115, 116, 117, 118, 119, 120, 121, 122, 123, 124, 125, 126, 127, 128, 129, 130, 131, 132, 133, 134, 135, 136, 137, 138, 139, 140, 141, 142, 143, 144, 145, 146, 147, 148, 149, 150, 151, 152, 153, 154, 155, 156, 157, 158, 159, 160, 161, 162, 163, 164, 165, 166, 167, 168, 169, 170, 171, 172, 173, 174, 175, 176, 177, 178, 179, 180, 181, 182, 183, 184, 185, 186, 187, 188, 189, 190, 191, 192, 193, 194, 195, 196, 197, 198, 199, 200, 201, 202, 203, 204, 205, 206, 207, 208, 209, 210, 211, 212, 213, 214, 215, 216, 217, 218, 219, 220, 221, 222, 223, 224, 225, 226, 227, 228, 229, 230, 231, 232, 233, 234, 235, 236, 237, 238, 239, 240, 241, 242, 243, 244, 245, 246, 247, 248, 249, 250, 251, 252, 253, 254, 255, 256, 257, 258, 259, 260, 261, 262, 263, 264, 265, 266, 267, 268, 269, 270, 271, 272, 273, 274, 275, 276, 277, 278, 279, 280, 281, 282, 283, 284, 285, 286, 287, 288, 289, 290, 291, 292, 293, 294, 295, 296, 297, 298, 299, 300],
      "AcquisitionTime": ["095423.832500", "095425.842500", "095427.850000", "095429.857500", "095431.865000", "095433.872500", "095435.882500", "095437.890000", "095439.897500", "095441.905000", "095443.915000", "095445.922500", "095447.930000", "095449.937500", "095451.945000", "095453.955000", "095455.962500", "095457.970000", "095459.977500", "095501.985000", "095503.995000", "095506.002500", "095508.010000", "095510.017500", "095512.025000", "095514.035000", "095516.042500", "095518.050000", "095520.057500", "095522.067500", "095524.075000", "095526.082500", "095528.090000", "095530.097500", "095532.107500", "095534.115000", "095536.122500", "095538.130000", "095540.137500", "095542.147500", "095544.155000", "095546.162500", "095548.170000", "095550.180000", "095552.187500", "095554.195000", "095556.202500", "095558.210000", "095600.220000", "095602.227500", "095604.235000", "095606.242500", "095608.250000", "095610.260000", "095612.267500", "095614.275000", "095616.282500", "095618.292500", "095620.300000", "095622.307500", "095624.315000", "095626.322500", "095628.332500", "095630.340000", "095632.347500", "095634.355000", "095636.362500", "095638.372500", "095640.380000", "095642.387500", "095644.395000", "095646.402500", "095648.412500", "095650.420000", "095652.427500", "095654.435000", "095656.445000", "095658.452500", "095700.460000", "095702.467500", "095704.475000", "095706.485000", "095708.492500", "095710.500000", "095712.507500", "095714.515000", "095716.525000", "095718.532500", "095720.540000", "095722.547500", "095724.557500", "095726.565000", "095728.572500", "095730.580000", "095732.587500", "095734.597500", "095736.605000", "095738.612500", "095740.620000", "095742.627500", "095744.637500", "095746.645000", "095748.652500", "095750.660000", "095752.670000", "095754.677500", "095756.685000", "095758.692500", "095800.700000", "095802.710000", "095804.717500", "095806.725000", "095808.732500", "095810.740000", "095812.750000", "095814.757500", "095816.765000", "095818.772500", "095820.782500", "095822.790000", "095824.797500", "095826.805000", "095828.812500", "095830.822500", "095832.830000", "095834.837500", "095836.845000", "095838.852500", "095840.862500", "095842.870000", "095844.877500", "095846.885000", "095848.892500", "095850.902500", "095852.910000", "095854.917500", "095856.925000", "095858.935000", "095900.942500", "095902.950000", "095904.957500", "095906.965000", "095908.975000", "095910.982500", "095912.990000", "095914.997500", "095917.005000", "095919.015000", "095921.022500", "095923.030000", "095925.037500", "095927.047500", "095929.055000", "095931.062500", "095933.070000", "095935.077500", "095937.087500", "095939.095000", "095941.102500", "095943.110000", "095945.117500", "095947.127500", "095949.135000", "095951.142500", "095953.150000", "095955.160000", "095957.167500", "095959.175000", "100001.182500", "100003.190000", "100005.200000", "100007.207500", "100009.215000", "100011.222500", "100013.230000", "100015.240000", "100017.247500", "100019.255000", "100021.262500", "100023.270000", "100025.280000", "100027.287500", "100029.295000", "100031.302500", "100033.312500", "100035.320000", "100037.327500", "100039.335000", "100041.342500", "100043.352500", "100045.360000", "100047.367500", "100049.375000", "100051.382500", "100053.392500", "100055.400000", "100057.407500", "100059.415000", "100101.425000", "100103.432500", "100105.440000", "100107.447500", "100109.455000", "100111.465000", "100113.472500", "100115.480000", "100117.487500", "100119.495000", "100121.505000", "100123.512500", "100125.520000", "100127.527500", "100129.537500", "100131.545000", "100133.552500", "100135.560000", "100137.567500", "100139.577500", "100141.585000", "100143.592500", "100145.600000", "100147.607500", "100149.617500", "100151.625000", "100153.632500", "100155.640000", "100157.647500", "100159.657500", "100201.665000", "100203.672500", "100205.680000", "100207.690000", "100209.697500", "100211.705000", "100213.712500", "100215.720000", "100217.730000", "100219.737500", "100221.745000", "100223.752500", "100225.760000", "100227.770000", "100229.777500", "100231.785000", "100233.792500", "100235.802500", "100237.810000", "100239.817500", "100241.825000", "100243.832500", "100245.842500", "100247.850000", "100249.857500", "100251.865000", "100253.872500", "100255.882500", "100257.890000", "100259.897500", "100301.905000", "100303.915000", "100305.922500", "100307.930000", "100309.937500", "100311.945000", "100313.955000", "100315.962500", "100317.970000", "100319.977500", "100321.985000", "100323.995000", "100326.002500", "100328.010000", "100330.017500", "100332.025000", "100334.035000", "100336.042500", "100338.050000", "100340.057500", "100342.067500", "100344.075000", "100346.082500", "100348.090000", "100350.097500", "100352.107500", "100354.115000", "100356.122500", "100358.130000", "100400.137500", "100402.147500", "100404.155000", "100406.162500", "100408.170000", "100410.180000", "100412.187500", "100414.195000", "100416.202500", "100418.210000", "100420.220000", "100422.227500", "100424.235000"],
      "ContentTime": ["095512.406000", "095512.406000", "095512.406000", "095512.406000", "095512.406000", "095512.421000", "095512.421000", "095512.421000", "095512.421000", "095512.437000", "095512.437000", "095512.437000", "095512.437000", "095512.437000", "095512.437000", "095512.437000", "095512.453000", "095512.453000", "095512.453000", "095512.453000", "095512.453000", "095512.453000", "095512.453000", "095512.468000", "095552.375000", "095552.390000", "095552.390000", "095552.390000", "095552.390000", "095552.390000", "095552.406000", "095552.406000", "095552.406000", "095552.406000", "095552.406000", "095552.406000", "095552.406000", "095552.421000", "095552.421000", "095552.421000", "095552.421000", "095552.421000", "095552.421000", "095552.437000", "095632.375000", "095632.390000", "095632.390000", "095632.390000", "095632.390000", "095632.390000", "095632.390000", "095632.390000", "095632.406000", "095632.406000", "095632.406000", "095632.406000", "095632.406000", "095632.421000", "095632.421000", "095632.421000", "095632.421000", "095632.437000", "095632.437000", "095632.437000", "095712.375000", "095712.390000", "095712.390000", "095712.390000", "095712.390000", "095712.390000", "095712.390000", "095712.390000", "095712.406000", "095712.406000", "095712.406000", "095712.406000", "095712.406000", "095712.421000", "095712.421000", "095712.421000", "095712.421000", "095712.421000", "095712.421000", "095712.421000", "095752.375000", "095752.390000", "095752.390000", "095752.390000", "095752.390000", "095752.390000", "095752.390000", "095752.390000", "095752.406000", "095752.406000", "095752.406000", "095752.406000", "095752.406000", "095752.406000", "095752.406000", "095752.406000", "095752.421000", "095752.421000", "095752.421000", "095752.421000", "095832.375000", "095832.390000", "095832.390000", "095832.390000", "095832.390000", "095832.390000", "095832.390000", "095832.390000", "095832.406000", "095832.406000", "095832.406000", "095832.406000", "095832.406000", "095832.406000", "095832.406000", "095832.421000", "095832.421000", "095832.421000", "095832.421000", "095832.421000", "095912.375000", "095912.390000", "095912.390000", "095912.390000", "095912.390000", "095912.390000", "095912.390000", "095912.390000", "095912.406000", "095912.406000", "095912.406000", "095912.406000", "095912.406000", "095912.406000", "095912.406000", "095912.421000", "095912.421000", "095912.421000", "095912.421000", "095912.421000", "095952.375000", "095952.406000", "095952.406000", "095952.406000", "095952.421000", "095952.421000", "095952.421000", "095952.421000", "095952.421000", "095952.437000", "095952.437000", "095952.437000", "095952.437000", "095952.437000", "095952.437000", "095952.453000", "095952.453000", "095952.453000", "095952.453000", "095952.453000", "100032.375000", "100032.390000", "100032.390000", "100032.390000", "100032.406000", "100032.406000", "100032.406000", "100032.406000", "100032.406000", "100032.406000", "100032.406000", "100032.406000", "100032.421000", "100032.421000", "100032.421000", "100032.421000", "100032.437000", "100032.437000", "100032.437000", "100032.437000", "100112.375000", "100112.390000", "100112.390000", "100112.390000", "100112.390000", "100112.406000", "100112.406000", "100112.406000", "100112.406000", "100112.406000", "100112.406000", "100112.421000", "100112.421000", "100112.421000", "100112.421000", "100112.421000", "100112.421000", "100112.421000", "100112.421000", "100112.437000", "100152.375000", "100152.390000", "100152.390000", "100152.390000", "100152.390000", "100152.390000", "100152.390000", "100152.390000", "100152.406000", "100152.406000", "100152.406000", "100152.406000", "100152.406000", "100152.406000", "100152.406000", "100152.406000", "100152.421000", "100152.421000", "100152.421000", "100152.421000", "100232.375000", "100232.390000", "100232.390000", "100232.390000", "100232.390000", "100232.390000", "100232.390000", "100232.390000", "100232.390000", "100232.406000", "100232.406000", "100232.406000", "100232.406000", "100232.421000", "100232.421000", "100232.421000", "100232.421000", "100232.421000", "100232.437000", "100232.437000", "100312.375000", "100312.390000", "100312.390000", "100312.390000", "100312.390000", "100312.390000", "100312.390000", "100312.390000", "100312.406000", "100312.406000", "100312.406000", "100312.421000", "100312.421000", "100312.421000", "100312.421000", "100312.421000", "100312.421000", "100312.421000", "100312.437000", "100312.437000", "100352.375000", "100352.390000", "100352.390000", "100352.390000", "100352.390000", "100352.390000", "100352.390000", "100352.390000", "100352.406000", "100352.406000", "100352.406000", "100352.406000", "100352.406000", "100352.406000", "100352.406000", "100352.406000", "100352.421000", "100352.421000", "100352.421000", "100352.421000", "100423.046000", "100423.046000", "100423.046000", "100423.046000", "100423.046000", "100423.046000", "100423.062000", "100423.062000", "100423.062000", "100423.062000", "100423.062000", "100423.062000", "100423.062000", "100423.078000", "100423.078000", "100423.078000"],
      "InstanceCreationTime": ["095512.406000", "095512.406000", "095512.406000", "095512.406000", "095512.406000", "095512.421000", "095512.421000", "095512.421000", "095512.421000", "095512.437000", "095512.437000", "095512.437000", "095512.437000", "095512.437000", "095512.437000", "095512.437000", "095512.453000", "095512.453000", "095512.453000", "095512.453000", "095512.453000", "095512.453000", "095512.453000", "095512.468000", "095552.375000", "095552.390000", "095552.390000", "095552.390000", "095552.390000", "095552.390000", "095552.406000", "095552.406000", "095552.406000", "095552.406000", "095552.406000", "095552.406000", "095552.406000", "095552.421000", "095552.421000", "095552.421000", "095552.421000", "095552.421000", "095552.421000", "095552.437000", "095632.375000", "095632.390000", "095632.390000", "095632.390000", "095632.390000", "095632.390000", "095632.390000", "095632.390000", "095632.406000", "095632.406000", "095632.406000", "095632.406000", "095632.406000", "095632.421000", "095632.421000", "095632.421000", "095632.421000", "095632.437000", "095632.437000", "095632.437000", "095712.375000", "095712.390000", "095712.390000", "095712.390000", "095712.390000", "095712.390000", "095712.390000", "095712.390000", "095712.406000", "095712.406000", "095712.406000", "095712.406000", "095712.406000", "095712.421000", "095712.421000", "095712.421000", "095712.421000", "095712.421000", "095712.421000", "095712.421000", "095752.375000", "095752.390000", "095752.390000", "095752.390000", "095752.390000", "095752.390000", "095752.390000", "095752.390000", "095752.406000", "095752.406000", "095752.406000", "095752.406000", "095752.406000", "095752.406000", "095752.406000", "095752.406000", "095752.421000", "095752.421000", "095752.421000", "095752.421000", "095832.375000", "095832.390000", "095832.390000", "095832.390000", "095832.390000", "095832.390000", "095832.390000", "095832.390000", "095832.406000", "095832.406000", "095832.406000", "095832.406000", "095832.406000", "095832.406000", "095832.406000", "095832.421000", "095832.421000", "095832.421000", "095832.421000", "095832.421000", "095912.375000", "095912.390000", "095912.390000", "095912.390000", "095912.390000", "095912.390000", "095912.390000", "095912.390000", "095912.406000", "095912.406000", "095912.406000", "095912.406000", "095912.406000", "095912.406000", "095912.406000", "095912.421000", "095912.421000", "095912.421000", "095912.421000", "095912.421000", "095952.375000", "095952.406000", "095952.406000", "095952.406000", "095952.421000", "095952.421000", "095952.421000", "095952.421000", "095952.421000", "095952.437000", "095952.437000", "095952.437000", "095952.437000", "095952.437000", "095952.437000", "095952.453000", "095952.453000", "095952.453000", "095952.453000", "095952.453000", "100032.375000", "100032.390000", "100032.390000", "100032.390000", "100032.406000", "100032.406000", "100032.406000", "100032.406000", "100032.406000", "100032.406000", "100032.406000", "100032.406000", "100032.421000", "100032.421000", "100032.421000", "100032.421000", "100032.437000", "100032.437000", "100032.437000", "100032.437000", "100112.375000", "100112.390000", "100112.390000", "100112.390000", "100112.390000", "100112.406000", "100112.406000", "100112.406000", "100112.406000", "100112.406000", "100112.406000", "100112.421000", "100112.421000", "100112.421000", "100112.421000", "100112.421000", "100112.421000", "100112.421000", "100112.421000", "100112.437000", "100152.375000", "100152.390000", "100152.390000", "100152.390000", "100152.390000", "100152.390000", "100152.390000", "100152.390000", "100152.406000", "100152.406000", "100152.406000", "100152.406000", "100152.406000", "100152.406000", "100152.406000", "100152.406000", "100152.421000", "100152.421000", "100152.421000", "100152.421000", "100232.375000", "100232.390000", "100232.390000", "100232.390000", "100232.390000", "100232.390000", "100232.390000", "100232.390000", "100232.390000", "100232.406000", "100232.406000", "100232.406000", "100232.406000", "100232.421000", "100232.421000", "100232.421000", "100232.421000", "100232.421000", "100232.437000", "100232.437000", "100312.375000", "100312.390000", "100312.390000", "100312.390000", "100312.390000", "100312.390000", "100312.390000", "100312.390000", "100312.406000", "100312.406000", "100312.406000", "100312.421000", "100312.421000", "100312.421000", "100312.421000", "100312.421000", "100312.421000", "100312.421000", "100312.437000", "100312.437000", "100352.375000", "100352.390000", "100352.390000", "100352.390000", "100352.390000", "100352.390000", "100352.390000", "100352.390000", "100352.406000", "100352.406000", "100352.406000", "100352.406000", "100352.406000", "100352.406000", "100352.406000", "100352.406000", "100352.421000", "100352.421000", "100352.421000", "100352.421000", "100423.046000", "100423.046000", "100423.046000", "100423.046000", "100423.046000", "100423.046000", "100423.062000", "100423.062000", "100423.062000", "100423.062000", "100423.062000", "100423.062000", "100423.062000", "100423.078000", "100423.078000", "100423.078000"],
      "InstanceNumber": [1, 2, 3, 4, 5, 6, 7, 8, 9, 10, 11, 12, 13, 14, 15, 16, 17, 18, 19, 20, 21, 22, 23, 24, 25, 26, 27, 28, 29, 30, 31, 32, 33, 34, 35, 36, 37, 38, 39, 40, 41, 42, 43, 44, 45, 46, 47, 48, 49, 50, 51, 52, 53, 54, 55, 56, 57, 58, 59, 60, 61, 62, 63, 64, 65, 66, 67, 68, 69, 70, 71, 72, 73, 74, 75, 76, 77, 78, 79, 80, 81, 82, 83, 84, 85, 86, 87, 88, 89, 90, 91, 92, 93, 94, 95, 96, 97, 98, 99, 100, 101, 102, 103, 104, 105, 106, 107, 108, 109, 110, 111, 112, 113, 114, 115, 116, 117, 118, 119, 120, 121, 122, 123, 124, 125, 126, 127, 128, 129, 130, 131, 132, 133, 134, 135, 136, 137, 138, 139, 140, 141, 142, 143, 144, 145, 146, 147, 148, 149, 150, 151, 152, 153, 154, 155, 156, 157, 158, 159, 160, 161, 162, 163, 164, 165, 166, 167, 168, 169, 170, 171, 172, 173, 174, 175, 176, 177, 178, 179, 180, 181, 182, 183, 184, 185, 186, 187, 188, 189, 190, 191, 192, 193, 194, 195, 196, 197, 198, 199, 200, 201, 202, 203, 204, 205, 206, 207, 208, 209, 210, 211, 212, 213, 214, 215, 216, 217, 218, 219, 220, 221, 222, 223, 224, 225, 226, 227, 228, 229, 230, 231, 232, 233, 234, 235, 236, 237, 238, 239, 240, 241, 242, 243, 244, 245, 246, 247, 248, 249, 250, 251, 252, 253, 254, 255, 256, 257, 258, 259, 260, 261, 262, 263, 264, 265, 266, 267, 268, 269, 270, 271, 272, 273, 274, 275, 276, 277, 278, 279, 280, 281, 282, 283, 284, 285, 286, 287, 288, 289, 290, 291, 292, 293, 294, 295, 296, 297, 298, 299, 300],
      "LargestImagePixelValue": [1729, 1563, 1732, 1454, 1478, 1782, 1471, 1488, 1431, 1492, 1580, 1471, 1627, 1458, 1795, 1557, 1498, 1737, 1420, 1481, 1753, 1521, 1829, 1436, 1609, 1441, 1489, 1499, 1486, 1469, 1619, 1486, 1470, 1844, 1775, 1469, 1483, 1680, 1464, 1543, 1426, 1690, 1528, 1769, 1525, 1487, 1501, 1429, 1651, 1538, 1605, 1494, 1631, 1565, 1509, 1474, 1487, 1591, 1431, 1846, 1503, 1600, 1553, 1428, 1837, 1495, 1502, 1508, 1498, 1948, 1465, 1482, 1475, 1461, 2019, 1546, 1464, 1467, 1871, 1463, 1500, 1499, 1498, 1498, 1563, 1763, 1499, 1522, 1755, 1540, 1846, 1553, 1873, 1523, 1489, 1775, 1493, 1766, 1528, 1530, 1655, 1530, 2110, 1514, 1471, 1504, 1495, 1520, 1484, 1685, 1603, 1817, 1537, 1662, 1432, 1583, 1922, 1529, 1468, 1448, 1737, 1520, 1682, 1638, 1627, 1562, 1446, 1530, 1447, 1600, 1505, 1615, 1454, 1724, 1461, 1646, 1507, 1838, 1443, 1598, 1451, 1790, 1540, 1566, 1906, 1818, 1669, 1564, 1434, 1393, 1462, 1665, 1517, 1688, 1996, 1626, 1655, 2025, 1415, 1563, 1464, 1384, 1912, 1483, 1757, 1452, 2039, 1438, 1575, 1431, 1817, 1491, 1410, 1941, 1409, 2019, 1492, 1874, 1540, 1420, 1492, 1462, 1430, 1395, 1626, 1950, 1467, 1423, 1563, 1643, 1454, 1441, 1445, 1606, 1500, 1399, 1695, 1622, 1927, 1516, 1417, 1448, 1401, 1563, 1461, 1913, 1533, 1734, 1467, 1971, 1879, 1579, 1504, 1862, 1516, 1466, 1898, 1537, 1529, 1701, 2159, 1604, 1519, 1523, 1681, 1567, 1520, 1764, 1490, 1855, 1594, 2144, 1498, 1481, 1709, 1533, 1791, 1450, 1988, 1797, 1474, 1817, 1479, 1736, 1464, 1652, 1472, 1450, 1498, 1495, 2003, 1429, 1453, 1859, 1444, 1673, 1419, 1769, 1420, 1848, 1493, 1902, 1470, 1838, 1578, 1441, 1551, 1662, 1606, 1942, 1490, 1538, 1409, 1483, 1623, 2107, 1823, 2141, 1436, 1435, 1387, 1525, 1792, 1402, 1485, 2126, 1670, 1784, 1704, 2078, 1553, 1481, 1473, 1520, 1447, 1871, 1934, 1599, 1773, 1574],
      "WindowCenter": [565.0, 560.0, 560.0, 557.0, 560.0, 562.0, 559.0, 559.0, 558.0, 559.0, 561.0, 559.0, 559.0, 557.0, 560.0, 561.0, 561.0, 561.0, 558.0, 562.0, 564.0, 560.0, 561.0, 558.0, 559.0, 559.0, 560.0, 559.0, 560.0, 559.0, 560.0, 560.0, 562.0, 564.0, 562.0, 559.0, 560.0, 561.0, 559.0, 560.0, 561.0, 563.0, 561.0, 562.0, 560.0, 559.0, 560.0, 560.0, 561.0, 562.0, 563.0, 561.0, 562.0, 562.0, 561.0, 562.0, 562.0, 563.0, 561.0, 563.0, 562.0, 562.0, 561.0, 560.0, 563.0, 562.0, 562.0, 561.0, 561.0, 565.0, 562.0, 562.0, 562.0, 562.0, 565.0, 563.0, 563.0, 563.0, 564.0, 561.0, 564.0, 563.0, 565.0, 564.0, 564.0, 564.0, 563.0, 565.0, 566.0, 563.0, 565.0, 563.0, 565.0, 562.0, 563.0, 567.0, 564.0, 564.0, 563.0, 564.0, 564.0, 563.0, 566.0, 563.0, 562.0, 562.0, 562.0, 565.0, 565.0, 566.0, 564.0, 566.0, 565.0, 566.0, 563.0, 566.0, 566.0, 563.0, 563.0, 563.0, 566.0, 564.0, 566.0, 565.0, 564.0, 563.0, 563.0, 563.0, 562.0, 564.0, 563.0, 564.0, 563.0, 565.0, 563.0, 565.0, 564.0, 566.0, 563.0, 564.0, 563.0, 568.0, 567.0, 567.0, 568.0, 565.0, 562.0, 561.0, 562.0, 564.0, 566.0, 569.0, 568.0, 568.0, 569.0, 566.0, 567.0, 568.0, 564.0, 566.0, 568.0, 566.0, 569.0, 566.0, 567.0, 566.0, 569.0, 565.0, 566.0, 565.0, 568.0, 566.0, 566.0, 569.0, 565.0, 569.0, 565.0, 568.0, 566.0, 566.0, 566.0, 566.0, 566.0, 566.0, 569.0, 569.0, 565.0, 565.0, 566.0, 566.0, 565.0, 565.0, 565.0, 566.0, 566.0, 566.0, 568.0, 568.0, 568.0, 566.0, 565.0, 566.0, 566.0, 568.0, 567.0, 568.0, 566.0, 568.0, 566.0, 569.0, 570.0, 569.0, 568.0, 570.0, 566.0, 567.0, 570.0, 569.0, 568.0, 567.0, 568.0, 563.0, 562.0, 563.0, 564.0, 564.0, 566.0, 570.0, 568.0, 570.0, 569.0, 571.0, 567.0, 567.0, 570.0, 569.0, 569.0, 567.0, 570.0, 568.0, 566.0, 568.0, 567.0, 569.0, 567.0, 567.0, 566.0, 566.0, 567.0, 568.0, 569.0, 565.0, 566.0, 569.0, 566.0, 567.0, 567.0, 569.0, 566.0, 569.0, 568.0, 570.0, 568.0, 569.0, 567.0, 567.0, 568.0, 569.0, 568.0, 570.0, 567.0, 567.0, 566.0, 568.0, 570.0, 572.0, 569.0, 569.0, 565.0, 566.0, 566.0, 568.0, 570.0, 567.0, 567.0, 571.0, 569.0, 569.0, 570.0, 571.0, 568.0, 566.0, 567.0, 567.0, 567.0, 571.0, 570.0, 568.0, 570.0, 569.0],
      "WindowWidth": [1188.0, 1177.0, 1175.0, 1170.0, 1175.0, 1179.0, 1174.0, 1174.0, 1172.0, 1174.0, 1177.0, 1174.0, 1173.0, 1170.0, 1176.0, 1178.0, 1178.0, 1177.0, 1172.0, 1180.0, 1183.0, 1177.0, 1177.0, 1172.0, 1174.0, 1173.0, 1175.0, 1175.0, 1176.0, 1175.0, 1177.0, 1176.0, 1180.0, 1183.0, 1180.0, 1174.0, 1176.0, 1177.0, 1173.0, 1177.0, 1178.0, 1182.0, 1179.0, 1180.0, 1176.0, 1174.0, 1176.0, 1175.0, 1179.0, 1180.0, 1181.0, 1179.0, 1181.0, 1180.0, 1179.0, 1180.0, 1181.0, 1181.0, 1178.0, 1183.0, 1181.0, 1181.0, 1179.0, 1176.0, 1182.0, 1181.0, 1181.0, 1179.0, 1179.0, 1185.0, 1180.0, 1181.0, 1182.0, 1181.0, 1187.0, 1183.0, 1182.0, 1182.0, 1185.0, 1179.0, 1184.0, 1183.0, 1186.0, 1186.0, 1185.0, 1185.0, 1182.0, 1187.0, 1188.0, 1183.0, 1186.0, 1183.0, 1186.0, 1181.0, 1182.0, 1191.0, 1185.0, 1185.0, 1183.0, 1184.0, 1186.0, 1183.0, 1187.0, 1183.0, 1181.0, 1181.0, 1182.0, 1186.0, 1187.0, 1189.0, 1186.0, 1188.0, 1187.0, 1188.0, 1184.0, 1189.0, 1190.0, 1184.0, 1183.0, 1184.0, 1189.0, 1186.0, 1188.0, 1186.0, 1184.0, 1183.0, 1183.0, 1182.0, 1181.0, 1184.0, 1183.0, 1184.0, 1183.0, 1188.0, 1183.0, 1186.0, 1186.0, 1189.0, 1184.0, 1185.0, 1184.0, 1194.0, 1193.0, 1192.0, 1193.0, 1187.0, 1180.0, 1178.0, 1181.0, 1186.0, 1190.0, 1195.0, 1193.0, 1194.0, 1196.0, 1189.0, 1191.0, 1193.0, 1186.0, 1189.0, 1194.0, 1191.0, 1196.0, 1190.0, 1192.0, 1189.0, 1195.0, 1187.0, 1189.0, 1188.0, 1192.0, 1191.0, 1190.0, 1194.0, 1187.0, 1195.0, 1189.0, 1192.0, 1190.0, 1190.0, 1191.0, 1189.0, 1190.0, 1191.0, 1195.0, 1196.0, 1188.0, 1188.0, 1190.0, 1190.0, 1189.0, 1188.0, 1188.0, 1190.0, 1191.0, 1189.0, 1194.0, 1195.0, 1193.0, 1190.0, 1189.0, 1191.0, 1190.0, 1193.0, 1193.0, 1194.0, 1190.0, 1194.0, 1191.0, 1195.0, 1197.0, 1196.0, 1193.0, 1198.0, 1190.0, 1192.0, 1198.0, 1196.0, 1193.0, 1191.0, 1194.0, 1182.0, 1180.0, 1183.0, 1186.0, 1184.0, 1189.0, 1197.0, 1193.0, 1198.0, 1196.0, 1200.0, 1191.0, 1192.0, 1198.0, 1195.0, 1196.0, 1193.0, 1197.0, 1194.0, 1190.0, 1193.0, 1191.0, 1195.0, 1193.0, 1192.0, 1191.0, 1190.0, 1192.0, 1193.0, 1196.0, 1187.0, 1189.0, 1195.0, 1189.0, 1192.0, 1192.0, 1195.0, 1191.0, 1196.0, 1194.0, 1199.0, 1194.0, 1195.0, 1193.0, 1192.0, 1194.0, 1196.0, 1193.0, 1197.0, 1192.0, 1192.0, 1191.0, 1195.0, 1197.0, 1201.0, 1196.0, 1196.0, 1188.0, 1190.0, 1190.0, 1195.0, 1197.0, 1192.0, 1193.0, 1200.0, 1196.0, 1196.0, 1199.0, 1199.0, 1193.0, 1191.0, 1192.0, 1192.0, 1192.0, 1199.0, 1198.0, 1193.0, 1199.0, 1197.0]
    },
    "slices": {}
  }
}