{
  "AcquisitionMatrixPE": 74,
  "AcquisitionNumber": 1,
  "AcquisitionTime": "15:38:31.965000",
  "BandwidthPerPixelPhaseEncode": 27.579,
  "BaseResolution": 74,
  "BodyPartExamined": "HEAD",
  "CoilString": "t:HEA;HEP",
  "ConversionSoftware": "dcm2niix",
  "ConversionSoftwareVersion": "v1.0.20190410  GCC6.3.0",
  "DerivedVendorReportedEchoSpacing": 0.000489993,
  "DeviceSerialNumber": "35256",
  "DwellTime": 2.4e-06,
  "EchoTime": 0.03,
  "EffectiveEchoSpacing": 0.000489993,
  "FlipAngle": 70,
  "ImageOrientationPatientDICOM": [1, 0, 0, 0, 1, 0],
  "ImageType": [
    "ORIGINAL",
    "PRIMARY",
    "M",
    "ND",
    "NORM",
    "MOSAIC"
],
  "ImagingFrequency": 123.223,
  "InPlanePhaseEncodingDirectionDICOM": "COL",
  "InstitutionAddress": "East_Lee_St._2907_Greensboro_NC_US_27401",
  "InstitutionName": "JSNN",
  "InstitutionalDepartmentName": "Department",
  "MRAcquisitionType": "2D",
  "MagneticFieldStrength": 3,
  "Manufacturer": "Siemens",
  "ManufacturersModelName": "TrioTim",
  "Modality": "MR",
  "PartialFourier": 1,
  "PatientPosition": "HFS",
  "PercentPhaseFOV": 100,
  "PhaseEncodingDirection": "j-",
  "PhaseEncodingSteps": 74,
  "PhaseResolution": 1,
  "PixelBandwidth": 2815,
  "ProcedureStepDescription": "head_Cassidy",
  "ProtocolName": "RestingState",
  "PulseSequenceDetails": "%SiemensSeq%_ep2d_bold",
  "ReceiveCoilName": "HeadMatrix",
  "ReconMatrixPE": 74,
  "RepetitionTime": 2,
  "SAR": 0.129772,
  "ScanOptions": "FS",
  "ScanningSequence": "EP",
  "SequenceName": "_epfid2d1_74",
  "SequenceVariant": "SK",
  "SeriesDescription": "RestingState",
  "SeriesNumber": 3,
  "ShimSetting": [1433, 10456, -8703, 735, -94, -574, 241, -10],
  "SliceThickness": 4,
  "SliceTiming": [1.945, 1.88, 1.8175, 1.755, 1.6925, 1.63, 1.5675, 1.505, 1.4425, 1.38, 1.3175, 1.255, 1.19, 1.1275, 1.065, 1.0025, 0.94, 0.8775, 0.815, 0.7525, 0.69, 0.6275, 0.565, 0.5, 0.4375, 0.375, 0.3125, 0.25, 0.1875, 0.125, 0.0625, 0],
  "SoftwareVersions": "syngo_MR_B19",
  "SpacingBetweenSlices": 4,
  "StationName": "JSNNMRI",
  "TaskName": "rest",
  "TotalReadoutTime": 0.0357695,
  "TxRefAmp": 326.462,
  "dcmmeta_affine": [
    [-2.972972869873047, 0.0, 0.0, 109.3975830078125],
    [0.0, 2.972972869873047, 0.0, -89.07039642333984],
    [0.0, 0.0, 4.0, -41.63373565673828],
    [0.0, 0.0, 0.0, 1.0]
],
  "dcmmeta_reorient_transform": [
    [0.0, -1.0, 0.0, 73.0],
    [1.0, 0.0, 0.0, 0.0],
    [0.0, 0.0, 1.0, 0.0],
    [0.0, 0.0, 0.0, 1.0]
],
  "dcmmeta_shape": [74, 74, 32, 300],
  "dcmmeta_slice_dim": 2,
  "dcmmeta_version": 0.6,
  "global": {
    "const": {
      "AcquisitionMatrix": [74, 0, 0, 74],
      "AngioFlag": "N",
      "BitsAllocated": 16,
      "BitsStored": 12,
      "BodyPartExamined": "HEAD",
      "Columns": 444,
      "EchoNumbers": 1,
      "EchoTime": 30.0,
      "EchoTrainLength": 1,
      "FlipAngle": 70.0,
      "HighBit": 11,
      "ImageOrientationPatient": [1.0, 0.0, 0.0, 0.0, 1.0, 0.0],
      "ImagePositionPatient": [-659.397567451, -677.95660400391, -41.633735656738],
      "ImageType": [
        "ORIGINAL",
        "PRIMARY",
        "M",
        "ND",
        "NORM",
        "MOSAIC"
],
      "ImagedNucleus": "1H",
      "ImagingFrequency": 123.223058,
      "InPlanePhaseEncodingDirection": "COL",
      "MRAcquisitionType": "2D",
      "MagneticFieldStrength": 3.0,
      "Manufacturer": "SIEMENS",
      "ManufacturerModelName": "TrioTim",
      "Modality": "MR",
      "NumberOfAverages": 1.0,
      "NumberOfPhaseEncodingSteps": 74,
      "PercentPhaseFieldOfView": 100.0,
      "PercentSampling": 100.0,
      "PerformedProcedureStepStartTime": "145653.491000",
      "PhotometricInterpretation": "MONOCHROME2",
      "PixelBandwidth": 2815.0,
      "PixelRepresentation": 0,
      "PixelSpacing": [2.972972869873, 2.972972869873],
      "ProtocolName": "RestingState",
      "RepetitionTime": 2000.0,
      "Rows": 444,
      "SAR": 0.12977200078596,
      "SamplesPerPixel": 1,
      "ScanOptions": "FS",
      "ScanningSequence": "EP",
      "SequenceName": "*epfid2d1_74",
      "SequenceVariant": "SK",
      "SeriesDescription": "RestingState",
      "SeriesNumber": 3,
      "SeriesTime": "153914.778000",
      "SliceLocation": -41.633735656738,
      "SliceThickness": 4.0,
      "SmallestImagePixelValue": 0,
      "SoftwareVersions": "syngo MR B19",
      "SpacingBetweenSlices": 4.0,
      "SpecificCharacterSet": "ISO_IR 100",
      "StudyID": "1",
      "StudyTime": "145653.403000",
      "TransmitCoilName": "Body",
      "VariableFlipAngleFlag": "N",
      "WindowCenterWidthExplanation": "Algo1",
      "dBdt": 0.0},
    "slices": {}
  },
  "time": {
    "samples": {
      "AcquisitionNumber": [1, 2, 3, 4, 5, 6, 7, 8, 9, 10, 11, 12, 13, 14, 15, 16, 17, 18, 19, 20, 21, 22, 23, 24, 25, 26, 27, 28, 29, 30, 31, 32, 33, 34, 35, 36, 37, 38, 39, 40, 41, 42, 43, 44, 45, 46, 47, 48, 49, 50, 51, 52, 53, 54, 55, 56, 57, 58, 59, 60, 61, 62, 63, 64, 65, 66, 67, 68, 69, 70, 71, 72, 73, 74, 75, 76, 77, 78, 79, 80, 81, 82, 83, 84, 85, 86, 87, 88, 89, 90, 91, 92, 93, 94, 95, 96, 97, 98, 99, 100, 101, 102, 103, 104, 105, 106, 107, 108, 109, 110, 111, 112, 113, 114, 115, 116, 117, 118, 119, 120, 121, 122, 123, 124, 125, 126, 127, 128, 129, 130, 131, 132, 133, 134, 135, 136, 137, 138, 139, 140, 141, 142, 143, 144, 145, 146, 147, 148, 149, 150, 151, 152, 153, 154, 155, 156, 157, 158, 159, 160, 161, 162, 163, 164, 165, 166, 167, 168, 169, 170, 171, 172, 173, 174, 175, 176, 177, 178, 179, 180, 181, 182, 183, 184, 185, 186, 187, 188, 189, 190, 191, 192, 193, 194, 195, 196, 197, 198, 199, 200, 201, 202, 203, 204, 205, 206, 207, 208, 209, 210, 211, 212, 213, 214, 215, 216, 217, 218, 219, 220, 221, 222, 223, 224, 225, 226, 227, 228, 229, 230, 231, 232, 233, 234, 235, 236, 237, 238, 239, 240, 241, 242, 243, 244, 245, 246, 247, 248, 249, 250, 251, 252, 253, 254, 255, 256, 257, 258, 259, 260, 261, 262, 263, 264, 265, 266, 267, 268, 269, 270, 271, 272, 273, 274, 275, 276, 277, 278, 279, 280, 281, 282, 283, 284, 285, 286, 287, 288, 289, 290, 291, 292, 293, 294, 295, 296, 297, 298, 299, 300],
      "AcquisitionTime": ["153831.965000", "153833.972500", "153835.980000", "153837.987500", "153839.995000", "153842.005000", "153844.012500", "153846.020000", "153848.027500", "153850.035000", "153852.045000", "153854.052500", "153856.060000", "153858.067500", "153900.077500", "153902.085000", "153904.092500", "153906.100000", "153908.107500", "153910.117500", "153912.125000", "153914.132500", "153916.140000", "153918.147500", "153920.157500", "153922.165000", "153924.172500", "153926.180000", "153928.190000", "153930.197500", "153932.205000", "153934.212500", "153936.220000", "153938.230000", "153940.237500", "153942.245000", "153944.252500", "153946.260000", "153948.270000", "153950.277500", "153952.285000", "153954.292500", "153956.300000", "153958.310000", "154000.317500", "154002.325000", "154004.332500", "154006.342500", "154008.350000", "154010.357500", "154012.365000", "154014.372500", "154016.382500", "154018.390000", "154020.397500", "154022.405000", "154024.412500", "154026.422500", "154028.430000", "154030.437500", "154032.445000", "154034.455000", "154036.462500", "154038.470000", "154040.477500", "154042.485000", "154044.495000", "154046.502500", "154048.510000", "154050.517500", "154052.525000", "154054.535000", "154056.542500", "154058.550000", "154100.557500", "154102.567500", "154104.575000", "154106.582500", "154108.590000", "154110.597500", "154112.607500", "154114.615000", "154116.622500", "154118.630000", "154120.637500", "154122.647500", "154124.655000", "154126.662500", "154128.670000", "154130.677500", "154132.687500", "154134.695000", "154136.702500", "154138.710000", "154140.720000", "154142.727500", "154144.735000", "154146.742500", "154148.750000", "154150.760000", "154152.767500", "154154.775000", "154156.782500", "154158.790000", "154200.800000", "154202.807500", "154204.815000", "154206.822500", "154208.832500", "154210.840000", "154212.847500", "154214.855000", "154216.862500", "154218.872500", "154220.880000", "154222.887500", "154224.895000", "154226.902500", "154228.912500", "154230.920000", "154232.927500", "154234.935000", "154236.945000", "154238.952500", "154240.960000", "154242.967500", "154244.975000", "154246.985000", "154248.992500", "154251.000000", "154253.007500", "154255.015000", "154257.025000", "154259.032500", "154301.040000", "154303.047500", "154305.055000", "154307.065000", "154309.072500", "154311.080000", "154313.087500", "154315.097500", "154317.105000", "154319.112500", "154321.120000", "154323.127500", "154325.137500", "154327.145000", "154329.152500", "154331.160000", "154333.167500", "154335.177500", "154337.185000", "154339.192500", "154341.200000", "154343.210000", "154345.217500", "154347.225000", "154349.232500", "154351.240000", "154353.250000", "154355.257500", "154357.265000", "154359.272500", "154401.280000", "154403.290000", "154405.297500", "154407.305000", "154409.312500", "154411.322500", "154413.330000", "154415.337500", "154417.345000", "154419.352500", "154421.362500", "154423.370000", "154425.377500", "154427.385000", "154429.392500", "154431.402500", "154433.410000", "154435.417500", "154437.425000", "154439.432500", "154441.442500", "154443.450000", "154445.457500", "154447.465000", "154449.475000", "154451.482500", "154453.490000", "154455.497500", "154457.505000", "154459.515000", "154501.522500", "154503.530000", "154505.537500", "154507.545000", "154509.555000", "154511.562500", "154513.570000", "154515.577500", "154517.587500", "154519.595000", "154521.602500", "154523.610000", "154525.617500", "154527.627500", "154529.635000", "154531.642500", "154533.650000", "154535.657500", "154537.667500", "154539.675000", "154541.682500", "154543.690000", "154545.700000", "154547.707500", "154549.715000", "154551.722500", "154553.730000", "154555.740000", "154557.747500", "154559.755000", "154601.762500", "154603.770000", "154605.780000", "154607.787500", "154609.795000", "154611.802500", "154613.810000", "154615.820000", "154617.827500", "154619.835000", "154621.842500", "154623.852500", "154625.860000", "154627.867500", "154629.875000", "154631.882500", "154633.892500", "154635.900000", "154637.907500", "154639.915000", "154641.922500", "154643.932500", "154645.940000", "154647.947500", "154649.955000", "154651.965000", "154653.972500", "154655.980000", "154657.987500", "154659.995000", "154702.005000", "154704.012500", "154706.020000", "154708.027500", "154710.035000", "154712.045000", "154714.052500", "154716.060000", "154718.067500", "154720.077500", "154722.085000", "154724.092500", "154726.100000", "154728.107500", "154730.117500", "154732.125000", "154734.132500", "154736.140000", "154738.147500", "154740.157500", "154742.165000", "154744.172500", "154746.180000", "154748.190000", "154750.197500", "154752.205000", "154754.212500", "154756.220000", "154758.230000", "154800.237500", "154802.245000", "154804.252500", "154806.260000", "154808.270000", "154810.277500", "154812.285000", "154814.292500", "154816.300000", "154818.310000", "154820.317500", "154822.325000", "154824.332500", "154826.342500", "154828.350000", "154830.357500", "154832.365000"],
      "ContentTime": ["153914.780000", "153914.783000", "153914.785000", "153914.788000", "153914.790000", "153914.790000", "153914.793000", "153914.795000", "153914.798000", "153914.798000", "153914.800000", "153914.803000", "153914.810000", "153914.813000", "153914.815000", "153914.818000", "153914.830000", "153914.830000", "153914.833000", "153914.835000", "153914.838000", "153954.779000", "153954.779000", "153954.781000", "153954.784000", "153954.786000", "153954.789000", "153954.789000", "153954.791000", "153954.794000", "153954.796000", "153954.796000", "153954.799000", "153954.801000", "153954.804000", "153954.804000", "153954.806000", "153954.809000", "153954.811000", "153954.811000", "153954.814000", "154034.777000", "154034.779000", "154034.782000", "154034.784000", "154034.787000", "154034.787000", "154034.789000", "154034.792000", "154034.794000", "154034.794000", "154034.797000", "154034.799000", "154034.802000", "154034.804000", "154034.804000", "154034.807000", "154034.809000", "154034.812000", "154034.812000", "154034.814000", "154114.777000", "154114.780000", "154114.782000", "154114.785000", "154114.787000", "154114.787000", "154114.790000", "154114.792000", "154114.795000", "154114.795000", "154114.797000", "154114.800000", "154114.802000", "154114.802000", "154114.805000", "154114.807000", "154114.810000", "154114.812000", "154114.812000", "154114.867000", "154154.775000", "154154.778000", "154154.780000", "154154.783000", "154154.785000", "154154.785000", "154154.788000", "154154.790000", "154154.793000", "154154.793000", "154154.805000", "154154.808000", "154154.810000", "154154.810000", "154154.813000", "154154.815000", "154154.818000", "154154.820000", "154154.820000", "154154.823000", "154234.776000", "154234.778000", "154234.781000", "154234.783000", "154234.786000", "154234.786000", "154234.788000", "154234.791000", "154234.793000", "154234.793000", "154234.796000", "154234.798000", "154234.801000", "154234.803000", "154234.803000", "154234.806000", "154234.808000", "154234.811000", "154234.811000", "154234.813000", "154254.779000", "154254.779000", "154254.781000", "154254.784000", "154254.786000", "154254.786000", "154254.789000", "154254.791000", "154254.794000", "154254.796000", "154334.777000", "154334.779000", "154334.782000", "154334.784000", "154334.787000", "154334.787000", "154334.789000", "154334.792000", "154334.794000", "154334.794000", "154334.797000", "154334.799000", "154334.802000", "154334.804000", "154334.804000", "154334.807000", "154334.809000", "154334.812000", "154334.812000", "154334.814000", "154414.778000", "154414.780000", "154414.783000", "154414.785000", "154414.788000", "154414.788000", "154414.790000", "154414.793000", "154414.795000", "154414.795000", "154414.798000", "154414.800000", "154414.803000", "154414.805000", "154414.805000", "154414.808000", "154414.810000", "154414.813000", "154414.815000", "154414.815000", "154454.776000", "154454.778000", "154454.781000", "154454.783000", "154454.786000", "154454.786000", "154454.793000", "154454.796000", "154454.798000", "154454.798000", "154454.801000", "154454.803000", "154454.806000", "154454.808000", "154454.808000", "154454.811000", "154454.813000", "154454.843000", "154454.846000", "154454.846000", "154534.776000", "154534.779000", "154534.781000", "154534.784000", "154534.786000", "154534.786000", "154534.789000", "154534.791000", "154534.794000", "154534.794000", "154534.796000", "154534.799000", "154534.801000", "154534.804000", "154534.804000", "154534.806000", "154534.809000", "154534.811000", "154534.811000", "154534.814000", "154614.777000", "154614.779000", "154614.782000", "154614.784000", "154614.787000", "154614.787000", "154614.789000", "154614.792000", "154614.794000", "154614.794000", "154614.797000", "154614.799000", "154614.802000", "154614.804000", "154614.804000", "154614.807000", "154614.809000", "154614.812000", "154614.812000", "154614.814000", "154654.777000", "154654.780000", "154654.782000", "154654.785000", "154654.787000", "154654.787000", "154654.790000", "154654.792000", "154654.795000", "154654.795000", "154654.797000", "154654.800000", "154654.802000", "154654.805000", "154654.805000", "154654.807000", "154654.820000", "154654.822000", "154654.822000", "154654.825000", "154734.776000", "154734.778000", "154734.781000", "154734.783000", "154734.786000", "154734.786000", "154734.788000", "154734.791000", "154734.793000", "154734.793000", "154734.796000", "154734.798000", "154734.801000", "154734.803000", "154734.803000", "154734.806000", "154734.808000", "154734.811000", "154734.811000", "154734.813000", "154814.779000", "154814.779000", "154814.781000", "154814.784000", "154814.786000", "154814.786000", "154814.789000", "154814.791000", "154814.794000", "154814.796000", "154814.796000", "154814.799000", "154814.801000", "154814.804000", "154814.806000", "154814.806000", "154814.809000", "154814.811000", "154814.814000", "154814.814000", "154831.916000", "154831.919000", "154831.921000", "154831.924000", "154831.924000", "154831.926000", "154831.929000", "154831.931000", "154831.934000"],
      "InstanceCreationTime": ["153914.780000", "153914.783000", "153914.785000", "153914.788000", "153914.790000", "153914.790000", "153914.793000", "153914.795000", "153914.798000", "153914.798000", "153914.800000", "153914.803000", "153914.810000", "153914.813000", "153914.815000", "153914.818000", "153914.830000", "153914.830000", "153914.833000", "153914.835000", "153914.838000", "153954.779000", "153954.779000", "153954.781000", "153954.784000", "153954.786000", "153954.789000", "153954.789000", "153954.791000", "153954.794000", "153954.796000", "153954.796000", "153954.799000", "153954.801000", "153954.804000", "153954.804000", "153954.806000", "153954.809000", "153954.811000", "153954.811000", "153954.814000", "154034.777000", "154034.779000", "154034.782000", "154034.784000", "154034.787000", "154034.787000", "154034.789000", "154034.792000", "154034.794000", "154034.794000", "154034.797000", "154034.799000", "154034.802000", "154034.804000", "154034.804000", "154034.807000", "154034.809000", "154034.812000", "154034.812000", "154034.814000", "154114.777000", "154114.780000", "154114.782000", "154114.785000", "154114.787000", "154114.787000", "154114.790000", "154114.792000", "154114.795000", "154114.795000", "154114.797000", "154114.800000", "154114.802000", "154114.802000", "154114.805000", "154114.807000", "154114.810000", "154114.812000", "154114.812000", "154114.867000", "154154.775000", "154154.778000", "154154.780000", "154154.783000", "154154.785000", "154154.785000", "154154.788000", "154154.790000", "154154.793000", "154154.793000", "154154.805000", "154154.808000", "154154.810000", "154154.810000", "154154.813000", "154154.815000", "154154.818000", "154154.820000", "154154.820000", "154154.823000", "154234.776000", "154234.778000", "154234.781000", "154234.783000", "154234.786000", "154234.786000", "154234.788000", "154234.791000", "154234.793000", "154234.793000", "154234.796000", "154234.798000", "154234.801000", "154234.803000", "154234.803000", "154234.806000", "154234.808000", "154234.811000", "154234.811000", "154234.813000", "154254.779000", "154254.779000", "154254.781000", "154254.784000", "154254.786000", "154254.786000", "154254.789000", "154254.791000", "154254.794000", "154254.796000", "154334.777000", "154334.779000", "154334.782000", "154334.784000", "154334.787000", "154334.787000", "154334.789000", "154334.792000", "154334.794000", "154334.794000", "154334.797000", "154334.799000", "154334.802000", "154334.804000", "154334.804000", "154334.807000", "154334.809000", "154334.812000", "154334.812000", "154334.814000", "154414.778000", "154414.780000", "154414.783000", "154414.785000", "154414.788000", "154414.788000", "154414.790000", "154414.793000", "154414.795000", "154414.795000", "154414.798000", "154414.800000", "154414.803000", "154414.805000", "154414.805000", "154414.808000", "154414.810000", "154414.813000", "154414.815000", "154414.815000", "154454.776000", "154454.778000", "154454.781000", "154454.783000", "154454.786000", "154454.786000", "154454.793000", "154454.796000", "154454.798000", "154454.798000", "154454.801000", "154454.803000", "154454.806000", "154454.808000", "154454.808000", "154454.811000", "154454.813000", "154454.843000", "154454.846000", "154454.846000", "154534.776000", "154534.779000", "154534.781000", "154534.784000", "154534.786000", "154534.786000", "154534.789000", "154534.791000", "154534.794000", "154534.794000", "154534.796000", "154534.799000", "154534.801000", "154534.804000", "154534.804000", "154534.806000", "154534.809000", "154534.811000", "154534.811000", "154534.814000", "154614.777000", "154614.779000", "154614.782000", "154614.784000", "154614.787000", "154614.787000", "154614.789000", "154614.792000", "154614.794000", "154614.794000", "154614.797000", "154614.799000", "154614.802000", "154614.804000", "154614.804000", "154614.807000", "154614.809000", "154614.812000", "154614.812000", "154614.814000", "154654.777000", "154654.780000", "154654.782000", "154654.785000", "154654.787000", "154654.787000", "154654.790000", "154654.792000", "154654.795000", "154654.795000", "154654.797000", "154654.800000", "154654.802000", "154654.805000", "154654.805000", "154654.807000", "154654.820000", "154654.822000", "154654.822000", "154654.825000", "154734.776000", "154734.778000", "154734.781000", "154734.783000", "154734.786000", "154734.786000", "154734.788000", "154734.791000", "154734.793000", "154734.793000", "154734.796000", "154734.798000", "154734.801000", "154734.803000", "154734.803000", "154734.806000", "154734.808000", "154734.811000", "154734.811000", "154734.813000", "154814.779000", "154814.779000", "154814.781000", "154814.784000", "154814.786000", "154814.786000", "154814.789000", "154814.791000", "154814.794000", "154814.796000", "154814.796000", "154814.799000", "154814.801000", "154814.804000", "154814.806000", "154814.806000", "154814.809000", "154814.811000", "154814.814000", "154814.814000", "154831.916000", "154831.919000", "154831.921000", "154831.924000", "154831.924000", "154831.926000", "154831.929000", "154831.931000", "154831.934000"],
      "InstanceNumber": [1, 2, 3, 4, 5, 6, 7, 8, 9, 10, 11, 12, 13, 14, 15, 16, 17, 18, 19, 20, 21, 22, 23, 24, 25, 26, 27, 28, 29, 30, 31, 32, 33, 34, 35, 36, 37, 38, 39, 40, 41, 42, 43, 44, 45, 46, 47, 48, 49, 50, 51, 52, 53, 54, 55, 56, 57, 58, 59, 60, 61, 62, 63, 64, 65, 66, 67, 68, 69, 70, 71, 72, 73, 74, 75, 76, 77, 78, 79, 80, 81, 82, 83, 84, 85, 86, 87, 88, 89, 90, 91, 92, 93, 94, 95, 96, 97, 98, 99, 100, 101, 102, 103, 104, 105, 106, 107, 108, 109, 110, 111, 112, 113, 114, 115, 116, 117, 118, 119, 120, 121, 122, 123, 124, 125, 126, 127, 128, 129, 130, 131, 132, 133, 134, 135, 136, 137, 138, 139, 140, 141, 142, 143, 144, 145, 146, 147, 148, 149, 150, 151, 152, 153, 154, 155, 156, 157, 158, 159, 160, 161, 162, 163, 164, 165, 166, 167, 168, 169, 170, 171, 172, 173, 174, 175, 176, 177, 178, 179, 180, 181, 182, 183, 184, 185, 186, 187, 188, 189, 190, 191, 192, 193, 194, 195, 196, 197, 198, 199, 200, 201, 202, 203, 204, 205, 206, 207, 208, 209, 210, 211, 212, 213, 214, 215, 216, 217, 218, 219, 220, 221, 222, 223, 224, 225, 226, 227, 228, 229, 230, 231, 232, 233, 234, 235, 236, 237, 238, 239, 240, 241, 242, 243, 244, 245, 246, 247, 248, 249, 250, 251, 252, 253, 254, 255, 256, 257, 258, 259, 260, 261, 262, 263, 264, 265, 266, 267, 268, 269, 270, 271, 272, 273, 274, 275, 276, 277, 278, 279, 280, 281, 282, 283, 284, 285, 286, 287, 288, 289, 290, 291, 292, 293, 294, 295, 296, 297, 298, 299, 300],
      "LargestImagePixelValue": [2178, 2157, 1830, 1546, 1855, 1703, 1732, 1743, 1585, 1695, 1984, 2176, 2058, 2150, 1778, 1495, 1634, 1549, 1725, 1563, 1976, 2092, 2098, 1560, 1557, 1629, 1847, 1906, 2197, 1769, 1629, 2031, 1970, 2271, 1830, 2060, 1719, 2189, 1838, 2004, 1668, 2076, 1556, 1744, 1675, 1576, 1659, 1697, 1922, 1696, 1517, 1640, 2196, 1695, 1830, 1834, 1584, 1607, 1923, 2257, 1835, 1759, 1852, 1909, 2202, 1709, 1835, 1775, 2251, 1912, 1637, 2137, 1864, 1707, 2159, 1970, 1911, 1589, 1715, 1864, 2147, 1699, 1817, 1620, 1755, 2124, 1812, 1774, 1704, 1884, 1884, 1897, 2059, 1871, 2254, 1897, 1890, 2045, 1807, 1915, 1705, 2210, 2058, 2127, 1616, 1644, 2236, 1796, 1724, 1738, 2176, 1719, 1708, 1830, 2260, 1714, 1682, 1850, 2014, 1859, 1923, 2233, 1952, 1724, 1700, 1961, 2189, 1772, 1681, 1967, 2089, 1657, 1740, 2292, 1839, 1782, 2324, 1882, 1667, 2057, 2326, 1888, 1669, 1798, 2177, 1735, 1732, 2010, 2378, 1746, 1746, 2230, 1763, 1704, 1786, 2167, 1729, 2084, 2336, 1924, 2081, 1899, 2371, 1996, 1724, 1753, 1842, 2296, 1800, 1809, 1745, 1995, 1813, 1930, 1780, 1760, 1672, 2222, 1901, 1708, 1742, 2102, 1723, 2291, 1725, 1816, 2106, 1651, 1783, 1771, 1828, 2238, 2262, 1665, 1769, 2218, 1758, 2314, 1891, 1706, 1743, 2002, 2116, 2310, 1940, 1671, 1762, 1724, 2279, 1770, 1799, 2348, 1768, 1671, 2247, 1880, 1666, 2119, 1935, 1743, 1764, 1714, 1928, 2011, 2092, 1724, 1733, 1937, 1835, 1725, 2106, 2354, 1855, 1670, 1759, 1838, 2214, 1909, 1723, 1910, 2078, 2166, 1753, 1940, 1730, 2263, 1871, 1761, 2231, 1706, 2276, 1696, 1772, 1986, 1700, 2262, 1734, 1702, 2294, 1852, 1725, 1768, 2309, 1890, 2074, 1700, 1770, 2134, 2191, 1716, 1719, 2309, 1904, 1681, 2005, 1730, 2296, 1709, 1814, 2036, 1686, 1906, 2240, 1818, 2406, 1774, 1772, 1782, 1744, 1784, 1769, 1796, 2071, 2033, 1803, 1809, 2368, 1752, 2326, 1742],
      "WindowCenter": [643.0, 639.0, 636.0, 633.0, 636.0, 635.0, 635.0, 638.0, 636.0, 637.0, 639.0, 639.0, 638.0, 637.0, 634.0, 632.0, 634.0, 633.0, 636.0, 635.0, 639.0, 638.0, 637.0, 634.0, 633.0, 635.0, 638.0, 638.0, 641.0, 637.0, 639.0, 641.0, 640.0, 640.0, 637.0, 638.0, 636.0, 638.0, 635.0, 636.0, 633.0, 636.0, 632.0, 633.0, 634.0, 633.0, 633.0, 635.0, 636.0, 635.0, 633.0, 635.0, 640.0, 637.0, 637.0, 637.0, 636.0, 638.0, 641.0, 643.0, 639.0, 638.0, 639.0, 639.0, 641.0, 638.0, 639.0, 638.0, 641.0, 640.0, 636.0, 641.0, 640.0, 638.0, 641.0, 640.0, 640.0, 637.0, 639.0, 641.0, 641.0, 638.0, 639.0, 638.0, 639.0, 641.0, 639.0, 638.0, 638.0, 642.0, 641.0, 641.0, 641.0, 641.0, 643.0, 641.0, 641.0, 642.0, 641.0, 640.0, 639.0, 643.0, 641.0, 640.0, 637.0, 639.0, 643.0, 640.0, 639.0, 641.0, 644.0, 640.0, 640.0, 643.0, 645.0, 641.0, 641.0, 642.0, 643.0, 643.0, 643.0, 644.0, 641.0, 641.0, 641.0, 643.0, 643.0, 641.0, 640.0, 642.0, 643.0, 639.0, 641.0, 644.0, 641.0, 641.0, 643.0, 641.0, 641.0, 643.0, 644.0, 641.0, 639.0, 640.0, 643.0, 641.0, 643.0, 644.0, 645.0, 640.0, 640.0, 644.0, 641.0, 641.0, 642.0, 645.0, 643.0, 646.0, 646.0, 643.0, 644.0, 643.0, 645.0, 642.0, 640.0, 641.0, 643.0, 645.0, 641.0, 641.0, 640.0, 643.0, 642.0, 642.0, 640.0, 641.0, 643.0, 645.0, 643.0, 641.0, 642.0, 645.0, 642.0, 645.0, 642.0, 642.0, 644.0, 641.0, 643.0, 643.0, 643.0, 645.0, 644.0, 641.0, 643.0, 646.0, 643.0, 646.0, 643.0, 641.0, 642.0, 646.0, 646.0, 645.0, 642.0, 641.0, 645.0, 645.0, 647.0, 643.0, 643.0, 646.0, 643.0, 643.0, 646.0, 643.0, 641.0, 644.0, 643.0, 642.0, 643.0, 644.0, 645.0, 645.0, 646.0, 643.0, 643.0, 646.0, 645.0, 643.0, 646.0, 647.0, 644.0, 642.0, 644.0, 645.0, 646.0, 645.0, 644.0, 646.0, 647.0, 648.0, 645.0, 646.0, 644.0, 647.0, 644.0, 643.0, 646.0, 643.0, 646.0, 642.0, 644.0, 646.0, 644.0, 647.0, 644.0, 644.0, 648.0, 645.0, 645.0, 645.0, 648.0, 645.0, 646.0, 643.0, 645.0, 647.0, 646.0, 643.0, 644.0, 648.0, 645.0, 643.0, 645.0, 644.0, 648.0, 644.0, 644.0, 646.0, 644.0, 647.0, 648.0, 645.0, 647.0, 643.0, 642.0, 643.0, 643.0, 644.0, 645.0, 645.0, 649.0, 649.0, 645.0, 645.0, 648.0, 644.0, 646.0, 643.0],
      "WindowWidth": [1361.0, 1351.0, 1343.0, 1338.0, 1343.0, 1342.0, 1342.0, 1349.0, 1345.0, 1345.0, 1351.0, 1351.0, 1348.0, 1346.0, 1338.0, 1337.0, 1340.0, 1337.0, 1343.0, 1341.0, 1351.0, 1349.0, 1346.0, 1340.0, 1338.0, 1343.0, 1349.0, 1348.0, 1354.0, 1346.0, 1351.0, 1356.0, 1353.0, 1353.0, 1347.0, 1349.0, 1343.0, 1348.0, 1341.0, 1343.0, 1337.0, 1343.0, 1335.0, 1337.0, 1339.0, 1338.0, 1338.0, 1342.0, 1344.0, 1342.0, 1338.0, 1342.0, 1353.0, 1346.0, 1345.0, 1346.0, 1345.0, 1349.0, 1356.0, 1359.0, 1350.0, 1349.0, 1350.0, 1351.0, 1354.0, 1349.0, 1351.0, 1349.0, 1355.0, 1352.0, 1345.0, 1356.0, 1353.0, 1349.0, 1354.0, 1352.0, 1352.0, 1346.0, 1352.0, 1355.0, 1357.0, 1348.0, 1351.0, 1348.0, 1351.0, 1356.0, 1351.0, 1349.0, 1349.0, 1357.0, 1356.0, 1355.0, 1355.0, 1355.0, 1359.0, 1355.0, 1355.0, 1358.0, 1355.0, 1352.0, 1351.0, 1360.0, 1355.0, 1353.0, 1348.0, 1352.0, 1360.0, 1353.0, 1351.0, 1356.0, 1361.0, 1354.0, 1354.0, 1359.0, 1364.0, 1357.0, 1355.0, 1359.0, 1361.0, 1359.0, 1360.0, 1362.0, 1357.0, 1356.0, 1356.0, 1360.0, 1359.0, 1355.0, 1354.0, 1359.0, 1359.0, 1352.0, 1355.0, 1363.0, 1356.0, 1355.0, 1361.0, 1356.0, 1355.0, 1360.0, 1363.0, 1355.0, 1352.0, 1354.0, 1359.0, 1355.0, 1360.0, 1363.0, 1364.0, 1354.0, 1353.0, 1361.0, 1356.0, 1355.0, 1358.0, 1365.0, 1361.0, 1367.0, 1368.0, 1361.0, 1361.0, 1360.0, 1365.0, 1359.0, 1354.0, 1356.0, 1361.0, 1364.0, 1357.0, 1355.0, 1354.0, 1360.0, 1358.0, 1357.0, 1354.0, 1356.0, 1360.0, 1366.0, 1359.0, 1356.0, 1357.0, 1364.0, 1359.0, 1366.0, 1358.0, 1359.0, 1362.0, 1356.0, 1360.0, 1360.0, 1361.0, 1365.0, 1363.0, 1356.0, 1361.0, 1367.0, 1360.0, 1367.0, 1361.0, 1356.0, 1359.0, 1367.0, 1367.0, 1366.0, 1359.0, 1356.0, 1365.0, 1365.0, 1370.0, 1360.0, 1360.0, 1367.0, 1360.0, 1361.0, 1366.0, 1361.0, 1357.0, 1363.0, 1361.0, 1358.0, 1361.0, 1363.0, 1365.0, 1365.0, 1366.0, 1361.0, 1361.0, 1366.0, 1366.0, 1361.0, 1366.0, 1369.0, 1363.0, 1359.0, 1363.0, 1366.0, 1368.0, 1365.0, 1364.0, 1369.0, 1370.0, 1372.0, 1365.0, 1367.0, 1362.0, 1368.0, 1364.0, 1361.0, 1368.0, 1361.0, 1368.0, 1360.0, 1362.0, 1368.0, 1364.0, 1370.0, 1364.0, 1364.0, 1371.0, 1366.0, 1365.0, 1366.0, 1371.0, 1366.0, 1367.0, 1361.0, 1365.0, 1371.0, 1368.0, 1361.0, 1364.0, 1372.0, 1366.0, 1361.0, 1367.0, 1364.0, 1373.0, 1363.0, 1364.0, 1367.0, 1364.0, 1369.0, 1372.0, 1365.0, 1370.0, 1361.0, 1359.0, 1359.0, 1360.0, 1363.0, 1364.0, 1366.0, 1375.0, 1373.0, 1367.0, 1365.0, 1372.0, 1363.0, 1368.0, 1361.0]
    },
    "slices": {}
  }
}