{
  "AcquisitionMatrixPE": 74,
  "AcquisitionNumber": 1,
  "AcquisitionTime": "11:49:6.655000",
  "BandwidthPerPixelPhaseEncode": 27.579,
  "BaseResolution": 74,
  "BodyPartExamined": "HEAD",
  "CoilString": "t:HEA;HEP",
  "ConversionSoftware": "dcm2niix",
  "ConversionSoftwareVersion": "v1.0.20190410  GCC6.3.0",
  "DerivedVendorReportedEchoSpacing": 0.000489993,
  "DeviceSerialNumber": "35256",
  "DwellTime": 2.4e-06,
  "EchoTime": 0.03,
  "EffectiveEchoSpacing": 0.000489993,
  "FlipAngle": 70,
  "ImageOrientationPatientDICOM": [1, 0, 0, 0, 1, 0],
  "ImageType": [
    "ORIGINAL",
    "PRIMARY",
    "M",
    "ND",
    "NORM",
    "MOSAIC"
],
  "ImagingFrequency": 123.223,
  "InPlanePhaseEncodingDirectionDICOM": "COL",
  "InstitutionAddress": "East_Lee_St._2907_Greensboro_NC_US_27401",
  "InstitutionName": "JSNN",
  "InstitutionalDepartmentName": "Department",
  "MRAcquisitionType": "2D",
  "MagneticFieldStrength": 3,
  "Manufacturer": "Siemens",
  "ManufacturersModelName": "TrioTim",
  "Modality": "MR",
  "PartialFourier": 1,
  "PatientPosition": "HFS",
  "PercentPhaseFOV": 100,
  "PhaseEncodingDirection": "j-",
  "PhaseEncodingSteps": 74,
  "PhaseResolution": 1,
  "PixelBandwidth": 2815,
  "ProcedureStepDescription": "head_Cassidy",
  "ProtocolName": "RestingState",
  "PulseSequenceDetails": "%SiemensSeq%_ep2d_bold",
  "ReceiveCoilName": "HeadMatrix",
  "ReconMatrixPE": 74,
  "RepetitionTime": 2,
  "SAR": 0.105364,
  "ScanOptions": "FS",
  "ScanningSequence": "EP",
  "SequenceName": "_epfid2d1_74",
  "SequenceVariant": "SK",
  "SeriesDescription": "RestingState",
  "SeriesNumber": 3,
  "ShimSetting": [1368, 10690, -8814, 444, -10, -335, -257, 6],
  "SliceThickness": 4,
  "SliceTiming": [1.945, 1.8825, 1.82, 1.755, 1.6925, 1.63, 1.5675, 1.505, 1.4425, 1.38, 1.3175, 1.255, 1.1925, 1.13, 1.065, 1.0025, 0.94, 0.8775, 0.815, 0.7525, 0.69, 0.6275, 0.565, 0.5025, 0.4375, 0.375, 0.3125, 0.25, 0.1875, 0.125, 0.0625, 0],
  "SoftwareVersions": "syngo_MR_B19",
  "SpacingBetweenSlices": 4,
  "StationName": "JSNNMRI",
  "TaskName": "rest",
  "TotalReadoutTime": 0.0357695,
  "TxRefAmp": 305.527,
  "dcmmeta_affine": [
    [-2.972972869873047, 0.0, 0.0, 105.18071746826172],
    [0.0, 2.972972869873047, 0.0, -94.49208068847656],
    [0.0, 0.0, 4.0, -81.06987762451172],
    [0.0, 0.0, 0.0, 1.0]
],
  "dcmmeta_reorient_transform": [
    [0.0, -1.0, 0.0, 73.0],
    [1.0, 0.0, 0.0, 0.0],
    [0.0, 0.0, 1.0, 0.0],
    [0.0, 0.0, 0.0, 1.0]
],
  "dcmmeta_shape": [74, 74, 32, 300],
  "dcmmeta_slice_dim": 2,
  "dcmmeta_version": 0.6,
  "global": {
    "const": {
      "AcquisitionMatrix": [74, 0, 0, 74],
      "AngioFlag": "N",
      "BitsAllocated": 16,
      "BitsStored": 12,
      "BodyPartExamined": "HEAD",
      "Columns": 444,
      "EchoNumbers": 1,
      "EchoTime": 30.0,
      "EchoTrainLength": 1,
      "FlipAngle": 70.0,
      "HighBit": 11,
      "ImageOrientationPatient": [1.0, 0.0, 0.0, 0.0, 1.0, 0.0],
      "ImagePositionPatient": [-655.18069982529, -672.53491687775, -81.069877624512],
      "ImageType": [
        "ORIGINAL",
        "PRIMARY",
        "M",
        "ND",
        "NORM",
        "MOSAIC"
],
      "ImagedNucleus": "1H",
      "ImagingFrequency": 123.223191,
      "InPlanePhaseEncodingDirection": "COL",
      "MRAcquisitionType": "2D",
      "MagneticFieldStrength": 3.0,
      "Manufacturer": "SIEMENS",
      "ManufacturerModelName": "TrioTim",
      "Modality": "MR",
      "NumberOfAverages": 1.0,
      "NumberOfPhaseEncodingSteps": 74,
      "PercentPhaseFieldOfView": 100.0,
      "PercentSampling": 100.0,
      "PerformedProcedureStepStartTime": "114019.243000",
      "PhotometricInterpretation": "MONOCHROME2",
      "PixelBandwidth": 2815.0,
      "PixelRepresentation": 0,
      "PixelSpacing": [2.972972869873, 2.972972869873],
      "ProtocolName": "RestingState",
      "RepetitionTime": 2000.0,
      "Rows": 444,
      "SAR": 0.10536374179712,
      "SamplesPerPixel": 1,
      "ScanOptions": "FS",
      "ScanningSequence": "EP",
      "SequenceName": "*epfid2d1_74",
      "SequenceVariant": "SK",
      "SeriesDescription": "RestingState",
      "SeriesNumber": 3,
      "SeriesTime": "114949.815000",
      "SliceLocation": -81.069877624512,
      "SliceThickness": 4.0,
      "SmallestImagePixelValue": 0,
      "SoftwareVersions": "syngo MR B19",
      "SpacingBetweenSlices": 4.0,
      "SpecificCharacterSet": "ISO_IR 100",
      "StudyID": "1",
      "StudyTime": "114019.041000",
      "TransmitCoilName": "Body",
      "VariableFlipAngleFlag": "N",
      "WindowCenterWidthExplanation": "Algo1",
      "dBdt": 0.0},
    "slices": {}
  },
  "time": {
    "samples": {
      "AcquisitionNumber": [1, 2, 3, 4, 5, 6, 7, 8, 9, 10, 11, 12, 13, 14, 15, 16, 17, 18, 19, 20, 21, 22, 23, 24, 25, 26, 27, 28, 29, 30, 31, 32, 33, 34, 35, 36, 37, 38, 39, 40, 41, 42, 43, 44, 45, 46, 47, 48, 49, 50, 51, 52, 53, 54, 55, 56, 57, 58, 59, 60, 61, 62, 63, 64, 65, 66, 67, 68, 69, 70, 71, 72, 73, 74, 75, 76, 77, 78, 79, 80, 81, 82, 83, 84, 85, 86, 87, 88, 89, 90, 91, 92, 93, 94, 95, 96, 97, 98, 99, 100, 101, 102, 103, 104, 105, 106, 107, 108, 109, 110, 111, 112, 113, 114, 115, 116, 117, 118, 119, 120, 121, 122, 123, 124, 125, 126, 127, 128, 129, 130, 131, 132, 133, 134, 135, 136, 137, 138, 139, 140, 141, 142, 143, 144, 145, 146, 147, 148, 149, 150, 151, 152, 153, 154, 155, 156, 157, 158, 159, 160, 161, 162, 163, 164, 165, 166, 167, 168, 169, 170, 171, 172, 173, 174, 175, 176, 177, 178, 179, 180, 181, 182, 183, 184, 185, 186, 187, 188, 189, 190, 191, 192, 193, 194, 195, 196, 197, 198, 199, 200, 201, 202, 203, 204, 205, 206, 207, 208, 209, 210, 211, 212, 213, 214, 215, 216, 217, 218, 219, 220, 221, 222, 223, 224, 225, 226, 227, 228, 229, 230, 231, 232, 233, 234, 235, 236, 237, 238, 239, 240, 241, 242, 243, 244, 245, 246, 247, 248, 249, 250, 251, 252, 253, 254, 255, 256, 257, 258, 259, 260, 261, 262, 263, 264, 265, 266, 267, 268, 269, 270, 271, 272, 273, 274, 275, 276, 277, 278, 279, 280, 281, 282, 283, 284, 285, 286, 287, 288, 289, 290, 291, 292, 293, 294, 295, 296, 297, 298, 299, 300],
      "AcquisitionTime": ["114906.655000", "114908.662500", "114910.670000", "114912.677500", "114914.687500", "114916.695000", "114918.702500", "114920.710000", "114922.717500", "114924.727500", "114926.735000", "114928.742500", "114930.750000", "114932.757500", "114934.767500", "114936.775000", "114938.782500", "114940.790000", "114942.800000", "114944.807500", "114946.815000", "114948.822500", "114950.830000", "114952.840000", "114954.847500", "114956.855000", "114958.862500", "115000.870000", "115002.880000", "115004.887500", "115006.895000", "115008.902500", "115010.912500", "115012.920000", "115014.927500", "115016.935000", "115018.942500", "115020.952500", "115022.960000", "115024.967500", "115026.975000", "115028.982500", "115030.992500", "115033.000000", "115035.007500", "115037.015000", "115039.025000", "115041.032500", "115043.040000", "115045.047500", "115047.055000", "115049.065000", "115051.072500", "115053.080000", "115055.087500", "115057.095000", "115059.105000", "115101.112500", "115103.120000", "115105.127500", "115107.135000", "115109.145000", "115111.152500", "115113.160000", "115115.167500", "115117.177500", "115119.185000", "115121.192500", "115123.200000", "115125.207500", "115127.217500", "115129.225000", "115131.232500", "115133.240000", "115135.247500", "115137.257500", "115139.265000", "115141.272500", "115143.280000", "115145.290000", "115147.297500", "115149.305000", "115151.312500", "115153.320000", "115155.330000", "115157.337500", "115159.345000", "115201.352500", "115203.360000", "115205.370000", "115207.377500", "115209.385000", "115211.392500", "115213.402500", "115215.410000", "115217.417500", "115219.425000", "115221.432500", "115223.442500", "115225.450000", "115227.457500", "115229.465000", "115231.472500", "115233.482500", "115235.490000", "115237.497500", "115239.505000", "115241.512500", "115243.522500", "115245.530000", "115247.537500", "115249.545000", "115251.555000", "115253.562500", "115255.570000", "115257.577500", "115259.585000", "115301.595000", "115303.602500", "115305.610000", "115307.617500", "115309.625000", "115311.635000", "115313.642500", "115315.650000", "115317.657500", "115319.667500", "115321.675000", "115323.682500", "115325.690000", "115327.697500", "115329.707500", "115331.715000", "115333.722500", "115335.730000", "115337.737500", "115339.747500", "115341.755000", "115343.762500", "115345.770000", "115347.780000", "115349.787500", "115351.795000", "115353.802500", "115355.810000", "115357.820000", "115359.827500", "115401.835000", "115403.842500", "115405.850000", "115407.860000", "115409.867500", "115411.875000", "115413.882500", "115415.890000", "115417.900000", "115419.907500", "115421.915000", "115423.922500", "115425.932500", "115427.940000", "115429.947500", "115431.955000", "115433.962500", "115435.972500", "115437.980000", "115439.987500", "115441.995000", "115444.002500", "115446.012500", "115448.020000", "115450.027500", "115452.035000", "115454.045000", "115456.052500", "115458.060000", "115500.067500", "115502.075000", "115504.085000", "115506.092500", "115508.100000", "115510.107500", "115512.115000", "115514.125000", "115516.132500", "115518.140000", "115520.147500", "115522.157500", "115524.165000", "115526.172500", "115528.180000", "115530.187500", "115532.197500", "115534.205000", "115536.212500", "115538.220000", "115540.227500", "115542.237500", "115544.245000", "115546.252500", "115548.260000", "115550.267500", "115552.277500", "115554.285000", "115556.292500", "115558.300000", "115600.310000", "115602.317500", "115604.325000", "115606.332500", "115608.340000", "115610.350000", "115612.357500", "115614.365000", "115616.372500", "115618.380000", "115620.390000", "115622.397500", "115624.405000", "115626.412500", "115628.422500", "115630.430000", "115632.437500", "115634.445000", "115636.452500", "115638.462500", "115640.470000", "115642.477500", "115644.485000", "115646.492500", "115648.502500", "115650.510000", "115652.517500", "115654.525000", "115656.535000", "115658.542500", "115700.550000", "115702.557500", "115704.565000", "115706.575000", "115708.582500", "115710.590000", "115712.597500", "115714.605000", "115716.615000", "115718.622500", "115720.630000", "115722.637500", "115724.645000", "115726.655000", "115728.662500", "115730.670000", "115732.677500", "115734.687500", "115736.695000", "115738.702500", "115740.710000", "115742.717500", "115744.727500", "115746.735000", "115748.742500", "115750.750000", "115752.757500", "115754.767500", "115756.775000", "115758.782500", "115800.790000", "115802.800000", "115804.807500", "115806.815000", "115808.822500", "115810.830000", "115812.840000", "115814.847500", "115816.855000", "115818.862500", "115820.870000", "115822.880000", "115824.887500", "115826.895000", "115828.902500", "115830.912500", "115832.920000", "115834.927500", "115836.935000", "115838.942500", "115840.952500", "115842.960000", "115844.967500", "115846.975000", "115848.982500", "115850.992500", "115853.000000", "115855.007500", "115857.015000", "115859.025000", "115901.032500", "115903.040000", "115905.047500", "115907.055000"],
      "ContentTime": ["114949.818000", "114949.820000", "114949.823000", "114949.825000", "114949.828000", "114949.828000", "114949.830000", "114949.838000", "114949.840000", "114949.843000", "114949.845000", "114949.845000", "114949.848000", "114949.850000", "114949.853000", "114949.853000", "114949.860000", "114949.863000", "114949.865000", "114949.865000", "114949.868000", "114949.870000", "115029.813000", "115029.816000", "115029.818000", "115029.821000", "115029.823000", "115029.823000", "115029.826000", "115029.828000", "115029.831000", "115029.831000", "115029.833000", "115029.836000", "115029.838000", "115029.838000", "115029.841000", "115029.843000", "115029.846000", "115029.846000", "115029.848000", "115029.851000", "115109.816000", "115109.816000", "115109.819000", "115109.821000", "115109.824000", "115109.824000", "115109.826000", "115109.829000", "115109.831000", "115109.831000", "115109.834000", "115109.836000", "115109.839000", "115109.839000", "115109.841000", "115109.844000", "115109.846000", "115109.846000", "115109.849000", "115109.851000", "115149.817000", "115149.817000", "115149.820000", "115149.822000", "115149.825000", "115149.825000", "115149.827000", "115149.830000", "115149.832000", "115149.837000", "115149.837000", "115149.840000", "115149.842000", "115149.845000", "115149.845000", "115149.847000", "115149.850000", "115149.852000", "115149.852000", "115149.855000", "115229.815000", "115229.815000", "115229.818000", "115229.820000", "115229.823000", "115229.823000", "115229.825000", "115229.828000", "115229.830000", "115229.835000", "115229.838000", "115229.838000", "115229.840000", "115229.843000", "115229.845000", "115229.848000", "115229.848000", "115229.850000", "115229.853000", "115229.855000", "115309.813000", "115309.816000", "115309.818000", "115309.821000", "115309.823000", "115309.823000", "115309.826000", "115309.828000", "115309.831000", "115309.831000", "115309.833000", "115309.836000", "115309.838000", "115309.838000", "115309.841000", "115309.843000", "115309.846000", "115309.846000", "115309.848000", "115309.851000", "115349.814000", "115349.816000", "115349.819000", "115349.821000", "115349.824000", "115349.824000", "115349.826000", "115349.829000", "115349.831000", "115349.831000", "115349.834000", "115349.836000", "115349.839000", "115349.839000", "115349.841000", "115349.844000", "115349.846000", "115349.846000", "115349.849000", "115349.851000", "115429.814000", "115429.817000", "115429.819000", "115429.822000", "115429.824000", "115429.824000", "115429.827000", "115429.829000", "115429.832000", "115429.832000", "115429.834000", "115429.837000", "115429.839000", "115429.839000", "115429.842000", "115429.844000", "115429.847000", "115429.847000", "115429.849000", "115429.852000", "115509.813000", "115509.815000", "115509.818000", "115509.820000", "115509.823000", "115509.823000", "115509.825000", "115509.828000", "115509.830000", "115509.830000", "115509.833000", "115509.835000", "115509.838000", "115509.840000", "115509.840000", "115509.843000", "115509.845000", "115509.848000", "115509.863000", "115509.865000", "115549.813000", "115549.816000", "115549.818000", "115549.821000", "115549.823000", "115549.823000", "115549.826000", "115549.828000", "115549.831000", "115549.833000", "115549.833000", "115549.836000", "115549.838000", "115549.841000", "115549.841000", "115549.843000", "115549.846000", "115549.848000", "115549.848000", "115549.851000", "115629.814000", "115629.816000", "115629.819000", "115629.821000", "115629.821000", "115629.824000", "115629.826000", "115629.829000", "115629.829000", "115629.831000", "115629.834000", "115629.836000", "115629.836000", "115629.839000", "115629.841000", "115629.844000", "115629.846000", "115629.846000", "115629.849000", "115629.851000", "115709.814000", "115709.817000", "115709.819000", "115709.822000", "115709.824000", "115709.824000", "115709.827000", "115709.829000", "115709.832000", "115709.832000", "115709.834000", "115709.837000", "115709.839000", "115709.839000", "115709.842000", "115709.844000", "115709.847000", "115709.847000", "115709.849000", "115709.852000", "115729.815000", "115729.817000", "115729.820000", "115729.822000", "115729.825000", "115729.825000", "115729.827000", "115729.830000", "115729.832000", "115729.832000", "115809.813000", "115809.815000", "115809.818000", "115809.820000", "115809.823000", "115809.823000", "115809.825000", "115809.828000", "115809.830000", "115809.830000", "115809.833000", "115809.835000", "115809.838000", "115809.838000", "115809.840000", "115809.843000", "115809.845000", "115809.848000", "115809.848000", "115809.850000", "115849.813000", "115849.816000", "115849.818000", "115849.821000", "115849.823000", "115849.823000", "115849.826000", "115849.828000", "115849.831000", "115849.843000", "115849.846000", "115849.848000", "115849.848000", "115849.851000", "115849.853000", "115849.856000", "115849.856000", "115849.858000", "115849.861000", "115849.863000", "115905.521000", "115905.524000", "115905.526000", "115905.526000", "115905.529000", "115905.531000", "115905.534000", "115905.534000"],
      "InstanceCreationTime": ["114949.818000", "114949.820000", "114949.823000", "114949.825000", "114949.828000", "114949.828000", "114949.830000", "114949.838000", "114949.840000", "114949.843000", "114949.845000", "114949.845000", "114949.848000", "114949.850000", "114949.853000", "114949.853000", "114949.860000", "114949.863000", "114949.865000", "114949.865000", "114949.868000", "114949.870000", "115029.813000", "115029.816000", "115029.818000", "115029.821000", "115029.823000", "115029.823000", "115029.826000", "115029.828000", "115029.831000", "115029.831000", "115029.833000", "115029.836000", "115029.838000", "115029.838000", "115029.841000", "115029.843000", "115029.846000", "115029.846000", "115029.848000", "115029.851000", "115109.816000", "115109.816000", "115109.819000", "115109.821000", "115109.824000", "115109.824000", "115109.826000", "115109.829000", "115109.831000", "115109.831000", "115109.834000", "115109.836000", "115109.839000", "115109.839000", "115109.841000", "115109.844000", "115109.846000", "115109.846000", "115109.849000", "115109.851000", "115149.817000", "115149.817000", "115149.820000", "115149.822000", "115149.825000", "115149.825000", "115149.827000", "115149.830000", "115149.832000", "115149.837000", "115149.837000", "115149.840000", "115149.842000", "115149.845000", "115149.845000", "115149.847000", "115149.850000", "115149.852000", "115149.852000", "115149.855000", "115229.815000", "115229.815000", "115229.818000", "115229.820000", "115229.823000", "115229.823000", "115229.825000", "115229.828000", "115229.830000", "115229.835000", "115229.838000", "115229.838000", "115229.840000", "115229.843000", "115229.845000", "115229.848000", "115229.848000", "115229.850000", "115229.853000", "115229.855000", "115309.813000", "115309.816000", "115309.818000", "115309.821000", "115309.823000", "115309.823000", "115309.826000", "115309.828000", "115309.831000", "115309.831000", "115309.833000", "115309.836000", "115309.838000", "115309.838000", "115309.841000", "115309.843000", "115309.846000", "115309.846000", "115309.848000", "115309.851000", "115349.814000", "115349.816000", "115349.819000", "115349.821000", "115349.824000", "115349.824000", "115349.826000", "115349.829000", "115349.831000", "115349.831000", "115349.834000", "115349.836000", "115349.839000", "115349.839000", "115349.841000", "115349.844000", "115349.846000", "115349.846000", "115349.849000", "115349.851000", "115429.814000", "115429.817000", "115429.819000", "115429.822000", "115429.824000", "115429.824000", "115429.827000", "115429.829000", "115429.832000", "115429.832000", "115429.834000", "115429.837000", "115429.839000", "115429.839000", "115429.842000", "115429.844000", "115429.847000", "115429.847000", "115429.849000", "115429.852000", "115509.813000", "115509.815000", "115509.818000", "115509.820000", "115509.823000", "115509.823000", "115509.825000", "115509.828000", "115509.830000", "115509.830000", "115509.833000", "115509.835000", "115509.838000", "115509.840000", "115509.840000", "115509.843000", "115509.845000", "115509.848000", "115509.863000", "115509.865000", "115549.813000", "115549.816000", "115549.818000", "115549.821000", "115549.823000", "115549.823000", "115549.826000", "115549.828000", "115549.831000", "115549.833000", "115549.833000", "115549.836000", "115549.838000", "115549.841000", "115549.841000", "115549.843000", "115549.846000", "115549.848000", "115549.848000", "115549.851000", "115629.814000", "115629.816000", "115629.819000", "115629.821000", "115629.821000", "115629.824000", "115629.826000", "115629.829000", "115629.829000", "115629.831000", "115629.834000", "115629.836000", "115629.836000", "115629.839000", "115629.841000", "115629.844000", "115629.846000", "115629.846000", "115629.849000", "115629.851000", "115709.814000", "115709.817000", "115709.819000", "115709.822000", "115709.824000", "115709.824000", "115709.827000", "115709.829000", "115709.832000", "115709.832000", "115709.834000", "115709.837000", "115709.839000", "115709.839000", "115709.842000", "115709.844000", "115709.847000", "115709.847000", "115709.849000", "115709.852000", "115729.815000", "115729.817000", "115729.820000", "115729.822000", "115729.825000", "115729.825000", "115729.827000", "115729.830000", "115729.832000", "115729.832000", "115809.813000", "115809.815000", "115809.818000", "115809.820000", "115809.823000", "115809.823000", "115809.825000", "115809.828000", "115809.830000", "115809.830000", "115809.833000", "115809.835000", "115809.838000", "115809.838000", "115809.840000", "115809.843000", "115809.845000", "115809.848000", "115809.848000", "115809.850000", "115849.813000", "115849.816000", "115849.818000", "115849.821000", "115849.823000", "115849.823000", "115849.826000", "115849.828000", "115849.831000", "115849.843000", "115849.846000", "115849.848000", "115849.848000", "115849.851000", "115849.853000", "115849.856000", "115849.856000", "115849.858000", "115849.861000", "115849.863000", "115905.521000", "115905.524000", "115905.526000", "115905.526000", "115905.529000", "115905.531000", "115905.534000", "115905.534000"],
      "InstanceNumber": [1, 2, 3, 4, 5, 6, 7, 8, 9, 10, 11, 12, 13, 14, 15, 16, 17, 18, 19, 20, 21, 22, 23, 24, 25, 26, 27, 28, 29, 30, 31, 32, 33, 34, 35, 36, 37, 38, 39, 40, 41, 42, 43, 44, 45, 46, 47, 48, 49, 50, 51, 52, 53, 54, 55, 56, 57, 58, 59, 60, 61, 62, 63, 64, 65, 66, 67, 68, 69, 70, 71, 72, 73, 74, 75, 76, 77, 78, 79, 80, 81, 82, 83, 84, 85, 86, 87, 88, 89, 90, 91, 92, 93, 94, 95, 96, 97, 98, 99, 100, 101, 102, 103, 104, 105, 106, 107, 108, 109, 110, 111, 112, 113, 114, 115, 116, 117, 118, 119, 120, 121, 122, 123, 124, 125, 126, 127, 128, 129, 130, 131, 132, 133, 134, 135, 136, 137, 138, 139, 140, 141, 142, 143, 144, 145, 146, 147, 148, 149, 150, 151, 152, 153, 154, 155, 156, 157, 158, 159, 160, 161, 162, 163, 164, 165, 166, 167, 168, 169, 170, 171, 172, 173, 174, 175, 176, 177, 178, 179, 180, 181, 182, 183, 184, 185, 186, 187, 188, 189, 190, 191, 192, 193, 194, 195, 196, 197, 198, 199, 200, 201, 202, 203, 204, 205, 206, 207, 208, 209, 210, 211, 212, 213, 214, 215, 216, 217, 218, 219, 220, 221, 222, 223, 224, 225, 226, 227, 228, 229, 230, 231, 232, 233, 234, 235, 236, 237, 238, 239, 240, 241, 242, 243, 244, 245, 246, 247, 248, 249, 250, 251, 252, 253, 254, 255, 256, 257, 258, 259, 260, 261, 262, 263, 264, 265, 266, 267, 268, 269, 270, 271, 272, 273, 274, 275, 276, 277, 278, 279, 280, 281, 282, 283, 284, 285, 286, 287, 288, 289, 290, 291, 292, 293, 294, 295, 296, 297, 298, 299, 300],
      "LargestImagePixelValue": [1249, 1969, 1265, 1828, 1224, 1954, 1292, 1466, 1287, 1294, 1491, 1285, 1621, 1489, 1344, 1662, 1215, 1938, 1201, 1357, 1462, 1398, 1571, 1222, 1832, 1232, 1789, 1245, 1596, 1226, 1333, 1590, 1353, 1857, 1332, 1324, 1448, 1248, 1703, 1230, 1630, 1406, 1286, 1903, 1218, 1496, 1303, 1520, 1260, 1231, 1757, 1324, 1813, 1229, 1727, 1222, 1401, 1276, 2104, 1308, 1621, 1285, 1688, 1271, 1648, 1279, 1427, 1511, 1330, 1605, 1280, 1339, 1272, 1804, 1309, 1695, 1481, 1315, 1785, 1338, 1390, 1274, 1497, 1332, 1869, 1387, 1745, 1229, 1229, 1406, 1831, 1310, 1822, 1219, 2090, 1262, 1289, 1499, 1317, 1312, 1768, 1249, 1946, 1234, 1345, 1645, 1326, 2035, 1231, 1588, 1626, 1447, 1291, 1685, 1445, 1315, 2076, 1219, 1417, 1307, 1547, 1588, 1355, 1965, 1226, 2026, 1243, 2118, 1224, 1856, 1244, 1296, 1940, 1260, 2063, 1260, 1740, 1244, 1914, 1261, 1874, 1224, 1805, 1262, 1716, 1272, 1516, 1274, 1910, 1296, 1891, 1255, 1682, 1257, 2118, 1275, 1442, 1521, 1291, 1593, 1269, 2068, 1286, 1787, 1271, 2073, 1259, 2034, 1258, 2010, 1261, 2134, 1260, 1363, 1683, 1347, 1822, 1269, 2011, 1426, 1312, 1941, 1265, 1799, 1366, 1277, 2019, 1259, 1408, 1891, 1231, 2193, 1252, 1364, 1341, 1721, 1342, 1303, 1716, 1701, 1647, 1307, 1982, 1301, 1594, 1284, 1846, 1283, 1831, 1367, 1675, 1322, 1373, 1835, 1454, 1254, 1390, 1648, 1432, 1497, 1323, 1796, 1325, 1870, 1272, 1930, 1250, 1918, 1257, 1602, 1266, 1725, 1376, 1904, 1291, 1775, 1265, 1446, 1374, 2227, 1243, 1730, 1311, 2103, 1348, 1462, 1672, 1442, 1728, 1261, 1942, 1261, 2100, 1254, 2017, 1260, 1954, 1282, 1867, 1483, 1313, 2079, 1267, 1509, 1339, 1363, 1434, 1284, 2064, 1271, 2228, 1270, 1614, 1342, 1299, 1930, 1306, 2111, 1283, 2101, 1269, 1855, 1264, 1761, 1354, 1961, 1290, 1958, 1279, 1715, 1292, 1317, 1759, 1341, 1894, 1271, 2168, 1270, 1572, 1620],
      "WindowCenter": [552.0, 555.0, 549.0, 553.0, 549.0, 554.0, 549.0, 550.0, 549.0, 550.0, 552.0, 550.0, 552.0, 552.0, 550.0, 552.0, 548.0, 555.0, 549.0, 553.0, 552.0, 552.0, 552.0, 549.0, 554.0, 550.0, 554.0, 550.0, 554.0, 550.0, 553.0, 555.0, 554.0, 556.0, 552.0, 552.0, 553.0, 551.0, 555.0, 552.0, 555.0, 553.0, 551.0, 555.0, 550.0, 553.0, 552.0, 553.0, 551.0, 552.0, 556.0, 554.0, 555.0, 551.0, 555.0, 551.0, 553.0, 553.0, 558.0, 552.0, 554.0, 552.0, 555.0, 552.0, 556.0, 553.0, 554.0, 554.0, 553.0, 554.0, 552.0, 553.0, 554.0, 557.0, 554.0, 556.0, 555.0, 553.0, 556.0, 552.0, 555.0, 554.0, 556.0, 555.0, 558.0, 555.0, 556.0, 552.0, 553.0, 556.0, 558.0, 553.0, 558.0, 553.0, 560.0, 554.0, 554.0, 556.0, 555.0, 555.0, 559.0, 554.0, 559.0, 553.0, 555.0, 557.0, 554.0, 559.0, 554.0, 557.0, 557.0, 556.0, 554.0, 557.0, 556.0, 554.0, 559.0, 554.0, 557.0, 555.0, 557.0, 557.0, 555.0, 559.0, 554.0, 559.0, 554.0, 560.0, 554.0, 559.0, 555.0, 556.0, 560.0, 555.0, 560.0, 555.0, 558.0, 556.0, 561.0, 556.0, 560.0, 554.0, 559.0, 555.0, 559.0, 556.0, 558.0, 556.0, 561.0, 557.0, 560.0, 555.0, 559.0, 556.0, 562.0, 556.0, 558.0, 559.0, 557.0, 559.0, 557.0, 562.0, 556.0, 560.0, 557.0, 562.0, 557.0, 562.0, 556.0, 561.0, 557.0, 562.0, 556.0, 558.0, 560.0, 557.0, 561.0, 556.0, 562.0, 558.0, 557.0, 562.0, 556.0, 560.0, 558.0, 557.0, 563.0, 557.0, 559.0, 563.0, 557.0, 563.0, 557.0, 559.0, 558.0, 561.0, 559.0, 559.0, 563.0, 561.0, 561.0, 558.0, 563.0, 557.0, 560.0, 557.0, 563.0, 558.0, 563.0, 559.0, 561.0, 558.0, 560.0, 563.0, 560.0, 558.0, 560.0, 562.0, 560.0, 561.0, 559.0, 563.0, 559.0, 563.0, 558.0, 563.0, 558.0, 563.0, 558.0, 561.0, 558.0, 562.0, 560.0, 563.0, 559.0, 562.0, 558.0, 561.0, 561.0, 565.0, 558.0, 564.0, 561.0, 565.0, 560.0, 561.0, 562.0, 560.0, 562.0, 558.0, 564.0, 559.0, 565.0, 559.0, 564.0, 559.0, 565.0, 560.0, 564.0, 561.0, 560.0, 565.0, 559.0, 561.0, 560.0, 561.0, 562.0, 561.0, 566.0, 560.0, 566.0, 560.0, 563.0, 560.0, 560.0, 565.0, 561.0, 566.0, 560.0, 565.0, 559.0, 565.0, 560.0, 564.0, 562.0, 565.0, 561.0, 566.0, 560.0, 564.0, 560.0, 561.0, 565.0, 561.0, 565.0, 560.0, 567.0, 560.0, 563.0, 563.0],
      "WindowWidth": [1158.0, 1162.0, 1152.0, 1158.0, 1151.0, 1159.0, 1152.0, 1153.0, 1152.0, 1153.0, 1157.0, 1154.0, 1157.0, 1156.0, 1153.0, 1157.0, 1150.0, 1162.0, 1152.0, 1159.0, 1158.0, 1158.0, 1156.0, 1152.0, 1160.0, 1153.0, 1161.0, 1155.0, 1160.0, 1154.0, 1159.0, 1162.0, 1162.0, 1164.0, 1158.0, 1157.0, 1159.0, 1156.0, 1163.0, 1157.0, 1163.0, 1159.0, 1157.0, 1163.0, 1155.0, 1159.0, 1157.0, 1160.0, 1155.0, 1158.0, 1166.0, 1161.0, 1163.0, 1156.0, 1162.0, 1156.0, 1161.0, 1160.0, 1168.0, 1157.0, 1161.0, 1158.0, 1163.0, 1157.0, 1164.0, 1160.0, 1161.0, 1162.0, 1159.0, 1162.0, 1158.0, 1159.0, 1162.0, 1168.0, 1162.0, 1166.0, 1165.0, 1160.0, 1165.0, 1157.0, 1163.0, 1162.0, 1166.0, 1164.0, 1169.0, 1164.0, 1166.0, 1159.0, 1160.0, 1167.0, 1170.0, 1160.0, 1168.0, 1162.0, 1172.0, 1162.0, 1163.0, 1165.0, 1164.0, 1163.0, 1171.0, 1163.0, 1171.0, 1161.0, 1164.0, 1167.0, 1162.0, 1172.0, 1162.0, 1169.0, 1168.0, 1167.0, 1163.0, 1169.0, 1166.0, 1163.0, 1173.0, 1162.0, 1169.0, 1166.0, 1169.0, 1168.0, 1165.0, 1172.0, 1162.0, 1172.0, 1163.0, 1174.0, 1162.0, 1172.0, 1164.0, 1168.0, 1174.0, 1165.0, 1174.0, 1164.0, 1170.0, 1166.0, 1175.0, 1167.0, 1173.0, 1164.0, 1172.0, 1166.0, 1171.0, 1166.0, 1170.0, 1168.0, 1176.0, 1169.0, 1174.0, 1165.0, 1172.0, 1167.0, 1178.0, 1168.0, 1171.0, 1171.0, 1169.0, 1172.0, 1168.0, 1178.0, 1168.0, 1173.0, 1169.0, 1179.0, 1168.0, 1177.0, 1167.0, 1177.0, 1168.0, 1179.0, 1167.0, 1170.0, 1174.0, 1169.0, 1175.0, 1167.0, 1178.0, 1171.0, 1169.0, 1177.0, 1167.0, 1174.0, 1171.0, 1169.0, 1180.0, 1170.0, 1172.0, 1180.0, 1170.0, 1181.0, 1170.0, 1173.0, 1172.0, 1177.0, 1173.0, 1173.0, 1179.0, 1176.0, 1176.0, 1170.0, 1180.0, 1169.0, 1174.0, 1169.0, 1181.0, 1173.0, 1181.0, 1173.0, 1177.0, 1172.0, 1175.0, 1180.0, 1175.0, 1172.0, 1176.0, 1179.0, 1175.0, 1176.0, 1174.0, 1181.0, 1173.0, 1181.0, 1172.0, 1181.0, 1171.0, 1181.0, 1171.0, 1177.0, 1172.0, 1178.0, 1176.0, 1180.0, 1173.0, 1179.0, 1173.0, 1177.0, 1177.0, 1185.0, 1172.0, 1183.0, 1178.0, 1186.0, 1175.0, 1177.0, 1180.0, 1175.0, 1179.0, 1172.0, 1183.0, 1174.0, 1185.0, 1173.0, 1184.0, 1173.0, 1184.0, 1176.0, 1182.0, 1178.0, 1175.0, 1185.0, 1173.0, 1178.0, 1176.0, 1178.0, 1179.0, 1178.0, 1187.0, 1175.0, 1187.0, 1175.0, 1181.0, 1175.0, 1176.0, 1184.0, 1177.0, 1187.0, 1175.0, 1185.0, 1175.0, 1186.0, 1177.0, 1183.0, 1180.0, 1186.0, 1179.0, 1186.0, 1176.0, 1182.0, 1176.0, 1179.0, 1184.0, 1177.0, 1184.0, 1176.0, 1189.0, 1177.0, 1182.0, 1181.0]
    },
    "slices": {}
  }
}