{
  "AcquisitionMatrixPE": 74,
  "AcquisitionNumber": 1,
  "AcquisitionTime": "14:25:50.975000",
  "BandwidthPerPixelPhaseEncode": 27.579,
  "BaseResolution": 74,
  "BodyPartExamined": "HEAD",
  "CoilString": "t:HEA;HEP",
  "ConversionSoftware": "dcm2niix",
  "ConversionSoftwareVersion": "v1.0.20190410  GCC6.3.0",
  "DerivedVendorReportedEchoSpacing": 0.000489993,
  "DeviceSerialNumber": "35256",
  "DwellTime": 2.4e-06,
  "EchoTime": 0.03,
  "EffectiveEchoSpacing": 0.000489993,
  "FlipAngle": 70,
  "ImageOrientationPatientDICOM": [1, 0, 0, 0, 1, 0],
  "ImageType": [
    "ORIGINAL",
    "PRIMARY",
    "M",
    "ND",
    "NORM",
    "MOSAIC"
],
  "ImagingFrequency": 123.223,
  "InPlanePhaseEncodingDirectionDICOM": "COL",
  "InstitutionAddress": "East_Lee_St._2907_Greensboro_NC_US_27401",
  "InstitutionName": "JSNN",
  "InstitutionalDepartmentName": "Department",
  "MRAcquisitionType": "2D",
  "MagneticFieldStrength": 3,
  "Manufacturer": "Siemens",
  "ManufacturersModelName": "TrioTim",
  "Modality": "MR",
  "PartialFourier": 1,
  "PatientPosition": "HFS",
  "PercentPhaseFOV": 100,
  "PhaseEncodingDirection": "j-",
  "PhaseEncodingSteps": 74,
  "PhaseResolution": 1,
  "PixelBandwidth": 2815,
  "ProcedureStepDescription": "head_Cassidy",
  "ProtocolName": "RestingState",
  "PulseSequenceDetails": "%SiemensSeq%_ep2d_bold",
  "ReceiveCoilName": "HeadMatrix",
  "ReconMatrixPE": 74,
  "RepetitionTime": 2,
  "SAR": 0.099958,
  "ScanOptions": "FS",
  "ScanningSequence": "EP",
  "SequenceName": "_epfid2d1_74",
  "SequenceVariant": "SK",
  "SeriesDescription": "RestingState",
  "SeriesNumber": 3,
  "ShimSetting": [1340, 10605, -8774, 726, -32, -299, 266, 147],
  "SliceThickness": 4,
  "SliceTiming": [1.945, 1.88, 1.8175, 1.755, 1.6925, 1.63, 1.5675, 1.505, 1.4425, 1.38, 1.3175, 1.255, 1.19, 1.1275, 1.065, 1.0025, 0.94, 0.8775, 0.815, 0.7525, 0.69, 0.6275, 0.565, 0.5, 0.4375, 0.375, 0.3125, 0.25, 0.1875, 0.125, 0.0625, 0],
  "SoftwareVersions": "syngo_MR_B19",
  "SpacingBetweenSlices": 4,
  "StationName": "JSNNMRI",
  "TaskName": "rest",
  "TotalReadoutTime": 0.0357695,
  "TxRefAmp": 259.78,
  "dcmmeta_affine": [
    [-2.972972869873047, 0.0, 0.0, 105.18071746826172],
    [0.0, 2.972972869873047, 0.0, -95.13583374023438],
    [0.0, 0.0, 3.999999761581421, -65.15977478027344],
    [0.0, 0.0, 0.0, 1.0]
],
  "dcmmeta_reorient_transform": [
    [0.0, -1.0, 0.0, 73.0],
    [1.0, 0.0, 0.0, 0.0],
    [0.0, 0.0, 1.0, 0.0],
    [0.0, 0.0, 0.0, 1.0]
],
  "dcmmeta_shape": [74, 74, 32, 300],
  "dcmmeta_slice_dim": 2,
  "dcmmeta_version": 0.6,
  "global": {
    "const": {
      "AcquisitionMatrix": [74, 0, 0, 74],
      "AngioFlag": "N",
      "BitsAllocated": 16,
      "BitsStored": 12,
      "BodyPartExamined": "HEAD",
      "Columns": 444,
      "EchoNumbers": 1,
      "EchoTime": 30.0,
      "EchoTrainLength": 1,
      "FlipAngle": 70.0,
      "HighBit": 11,
      "ImageOrientationPatient": [1.0, 0.0, 0.0, 0.0, 1.0, 0.0],
      "ImagePositionPatient": [-655.18069982529, -671.89116382599, -65.159774780273],
      "ImageType": [
        "ORIGINAL",
        "PRIMARY",
        "M",
        "ND",
        "NORM",
        "MOSAIC"
],
      "ImagedNucleus": "1H",
      "ImagingFrequency": 123.222673,
      "InPlanePhaseEncodingDirection": "COL",
      "MRAcquisitionType": "2D",
      "MagneticFieldStrength": 3.0,
      "Manufacturer": "SIEMENS",
      "ManufacturerModelName": "TrioTim",
      "Modality": "MR",
      "NumberOfAverages": 1.0,
      "NumberOfPhaseEncodingSteps": 74,
      "PercentPhaseFieldOfView": 100.0,
      "PercentSampling": 100.0,
      "PerformedProcedureStepStartTime": "140624.453000",
      "PhotometricInterpretation": "MONOCHROME2",
      "PixelBandwidth": 2815.0,
      "PixelRepresentation": 0,
      "PixelSpacing": [2.972972869873, 2.972972869873],
      "ProtocolName": "RestingState",
      "RepetitionTime": 2000.0,
      "Rows": 444,
      "SAR": 0.09995801306641,
      "SamplesPerPixel": 1,
      "ScanOptions": "FS",
      "ScanningSequence": "EP",
      "SequenceName": "*epfid2d1_74",
      "SequenceVariant": "SK",
      "SeriesDescription": "RestingState",
      "SeriesNumber": 3,
      "SeriesTime": "142648.109000",
      "SliceLocation": -65.159774780273,
      "SliceThickness": 4.0,
      "SmallestImagePixelValue": 0,
      "SoftwareVersions": "syngo MR B19",
      "SpacingBetweenSlices": 3.9999998769452,
      "SpecificCharacterSet": "ISO_IR 100",
      "StudyID": "1",
      "StudyTime": "140624.343000",
      "TransmitCoilName": "Body",
      "VariableFlipAngleFlag": "N",
      "WindowCenterWidthExplanation": "Algo1",
      "dBdt": 0.0},
    "slices": {}
  },
  "time": {
    "samples": {
      "AcquisitionNumber": [1, 2, 3, 4, 5, 6, 7, 8, 9, 10, 11, 12, 13, 14, 15, 16, 17, 18, 19, 20, 21, 22, 23, 24, 25, 26, 27, 28, 29, 30, 31, 32, 33, 34, 35, 36, 37, 38, 39, 40, 41, 42, 43, 44, 45, 46, 47, 48, 49, 50, 51, 52, 53, 54, 55, 56, 57, 58, 59, 60, 61, 62, 63, 64, 65, 66, 67, 68, 69, 70, 71, 72, 73, 74, 75, 76, 77, 78, 79, 80, 81, 82, 83, 84, 85, 86, 87, 88, 89, 90, 91, 92, 93, 94, 95, 96, 97, 98, 99, 100, 101, 102, 103, 104, 105, 106, 107, 108, 109, 110, 111, 112, 113, 114, 115, 116, 117, 118, 119, 120, 121, 122, 123, 124, 125, 126, 127, 128, 129, 130, 131, 132, 133, 134, 135, 136, 137, 138, 139, 140, 141, 142, 143, 144, 145, 146, 147, 148, 149, 150, 151, 152, 153, 154, 155, 156, 157, 158, 159, 160, 161, 162, 163, 164, 165, 166, 167, 168, 169, 170, 171, 172, 173, 174, 175, 176, 177, 178, 179, 180, 181, 182, 183, 184, 185, 186, 187, 188, 189, 190, 191, 192, 193, 194, 195, 196, 197, 198, 199, 200, 201, 202, 203, 204, 205, 206, 207, 208, 209, 210, 211, 212, 213, 214, 215, 216, 217, 218, 219, 220, 221, 222, 223, 224, 225, 226, 227, 228, 229, 230, 231, 232, 233, 234, 235, 236, 237, 238, 239, 240, 241, 242, 243, 244, 245, 246, 247, 248, 249, 250, 251, 252, 253, 254, 255, 256, 257, 258, 259, 260, 261, 262, 263, 264, 265, 266, 267, 268, 269, 270, 271, 272, 273, 274, 275, 276, 277, 278, 279, 280, 281, 282, 283, 284, 285, 286, 287, 288, 289, 290, 291, 292, 293, 294, 295, 296, 297, 298, 299, 300],
      "AcquisitionTime": ["142550.975000", "142552.982500", "142554.990000", "142556.997500", "142559.005000", "142601.015000", "142603.022500", "142605.030000", "142607.037500", "142609.045000", "142611.055000", "142613.062500", "142615.070000", "142617.077500", "142619.087500", "142621.095000", "142623.102500", "142625.110000", "142627.117500", "142629.127500", "142631.135000", "142633.142500", "142635.150000", "142637.157500", "142639.167500", "142641.175000", "142643.182500", "142645.190000", "142647.197500", "142649.207500", "142651.215000", "142653.222500", "142655.230000", "142657.240000", "142659.247500", "142701.255000", "142703.262500", "142705.270000", "142707.280000", "142709.287500", "142711.295000", "142713.302500", "142715.310000", "142717.320000", "142719.327500", "142721.335000", "142723.342500", "142725.352500", "142727.360000", "142729.367500", "142731.375000", "142733.382500", "142735.392500", "142737.400000", "142739.407500", "142741.415000", "142743.422500", "142745.432500", "142747.440000", "142749.447500", "142751.455000", "142753.465000", "142755.472500", "142757.480000", "142759.487500", "142801.495000", "142803.505000", "142805.512500", "142807.520000", "142809.527500", "142811.535000", "142813.545000", "142815.552500", "142817.560000", "142819.567500", "142821.577500", "142823.585000", "142825.592500", "142827.600000", "142829.607500", "142831.617500", "142833.625000", "142835.632500", "142837.640000", "142839.647500", "142841.657500", "142843.665000", "142845.672500", "142847.680000", "142849.687500", "142851.697500", "142853.705000", "142855.712500", "142857.720000", "142859.730000", "142901.737500", "142903.745000", "142905.752500", "142907.760000", "142909.770000", "142911.777500", "142913.785000", "142915.792500", "142917.800000", "142919.810000", "142921.817500", "142923.825000", "142925.832500", "142927.842500", "142929.850000", "142931.857500", "142933.865000", "142935.872500", "142937.882500", "142939.890000", "142941.897500", "142943.905000", "142945.912500", "142947.922500", "142949.930000", "142951.937500", "142953.945000", "142955.955000", "142957.962500", "142959.970000", "143001.977500", "143003.985000", "143005.995000", "143008.002500", "143010.010000", "143012.017500", "143014.025000", "143016.035000", "143018.042500", "143020.050000", "143022.057500", "143024.065000", "143026.075000", "143028.082500", "143030.090000", "143032.097500", "143034.107500", "143036.115000", "143038.122500", "143040.130000", "143042.137500", "143044.147500", "143046.155000", "143048.162500", "143050.170000", "143052.177500", "143054.187500", "143056.195000", "143058.202500", "143100.210000", "143102.220000", "143104.227500", "143106.235000", "143108.242500", "143110.250000", "143112.260000", "143114.267500", "143116.275000", "143118.282500", "143120.290000", "143122.300000", "143124.307500", "143126.315000", "143128.322500", "143130.332500", "143132.340000", "143134.347500", "143136.355000", "143138.362500", "143140.372500", "143142.380000", "143144.387500", "143146.395000", "143148.402500", "143150.412500", "143152.420000", "143154.427500", "143156.435000", "143158.442500", "143200.452500", "143202.460000", "143204.467500", "143206.475000", "143208.485000", "143210.492500", "143212.500000", "143214.507500", "143216.515000", "143218.525000", "143220.532500", "143222.540000", "143224.547500", "143226.555000", "143228.565000", "143230.572500", "143232.580000", "143234.587500", "143236.597500", "143238.605000", "143240.612500", "143242.620000", "143244.627500", "143246.637500", "143248.645000", "143250.652500", "143252.660000", "143254.667500", "143256.677500", "143258.685000", "143300.692500", "143302.700000", "143304.710000", "143306.717500", "143308.725000", "143310.732500", "143312.740000", "143314.750000", "143316.757500", "143318.765000", "143320.772500", "143322.780000", "143324.790000", "143326.797500", "143328.805000", "143330.812500", "143332.820000", "143334.830000", "143336.837500", "143338.845000", "143340.852500", "143342.862500", "143344.870000", "143346.877500", "143348.885000", "143350.892500", "143352.902500", "143354.910000", "143356.917500", "143358.925000", "143400.932500", "143402.942500", "143404.950000", "143406.957500", "143408.965000", "143410.975000", "143412.982500", "143414.990000", "143416.997500", "143419.005000", "143421.015000", "143423.022500", "143425.030000", "143427.037500", "143429.045000", "143431.055000", "143433.062500", "143435.070000", "143437.077500", "143439.087500", "143441.095000", "143443.102500", "143445.110000", "143447.117500", "143449.127500", "143451.135000", "143453.142500", "143455.150000", "143457.157500", "143459.167500", "143501.175000", "143503.182500", "143505.190000", "143507.197500", "143509.207500", "143511.215000", "143513.222500", "143515.230000", "143517.240000", "143519.247500", "143521.255000", "143523.262500", "143525.270000", "143527.280000", "143529.287500", "143531.295000", "143533.302500", "143535.310000", "143537.320000", "143539.327500", "143541.335000", "143543.342500", "143545.352500", "143547.360000", "143549.367500", "143551.375000"],
      "ContentTime": ["142648.140000", "142648.140000", "142648.156000", "142648.156000", "142648.156000", "142648.156000", "142648.156000", "142648.156000", "142648.171000", "142648.171000", "142648.171000", "142648.171000", "142648.171000", "142648.171000", "142648.171000", "142648.171000", "142648.187000", "142648.187000", "142648.187000", "142648.187000", "142648.187000", "142648.187000", "142648.187000", "142648.203000", "142648.203000", "142648.203000", "142648.203000", "142648.203000", "142648.218000", "142728.093000", "142728.093000", "142728.093000", "142728.093000", "142728.109000", "142728.109000", "142728.125000", "142728.125000", "142728.125000", "142728.125000", "142728.125000", "142728.125000", "142728.140000", "142728.140000", "142728.140000", "142728.140000", "142728.140000", "142728.156000", "142728.156000", "142728.156000", "142808.093000", "142808.093000", "142808.093000", "142808.093000", "142808.109000", "142808.109000", "142808.109000", "142808.109000", "142808.109000", "142808.109000", "142808.109000", "142808.125000", "142808.125000", "142808.125000", "142808.125000", "142808.125000", "142808.125000", "142808.125000", "142808.125000", "142808.140000", "142848.093000", "142848.093000", "142848.109000", "142848.109000", "142848.109000", "142848.109000", "142848.109000", "142848.109000", "142848.109000", "142848.125000", "142848.125000", "142848.125000", "142848.125000", "142848.140000", "142848.140000", "142848.140000", "142848.140000", "142848.140000", "142848.156000", "142848.156000", "142928.093000", "142928.093000", "142928.093000", "142928.109000", "142928.109000", "142928.109000", "142928.109000", "142928.109000", "142928.109000", "142928.109000", "142928.109000", "142928.125000", "142928.125000", "142928.125000", "142928.125000", "142928.125000", "142928.125000", "142928.125000", "142928.125000", "142928.140000", "143008.093000", "143008.093000", "143008.093000", "143008.109000", "143008.109000", "143008.109000", "143008.125000", "143008.125000", "143008.125000", "143008.125000", "143008.125000", "143008.125000", "143008.125000", "143008.140000", "143008.140000", "143008.140000", "143008.140000", "143008.140000", "143008.140000", "143008.156000", "143048.093000", "143048.093000", "143048.093000", "143048.109000", "143048.109000", "143048.109000", "143048.109000", "143048.109000", "143048.109000", "143048.109000", "143048.109000", "143048.125000", "143048.125000", "143048.125000", "143048.125000", "143048.125000", "143048.140000", "143048.140000", "143048.140000", "143048.140000", "143128.093000", "143128.093000", "143128.093000", "143128.109000", "143128.109000", "143128.109000", "143128.109000", "143128.109000", "143128.125000", "143128.125000", "143128.125000", "143128.125000", "143128.140000", "143128.140000", "143128.140000", "143128.140000", "143128.140000", "143128.140000", "143128.140000", "143128.156000", "143208.093000", "143208.093000", "143208.093000", "143208.109000", "143208.109000", "143208.109000", "143208.109000", "143208.109000", "143208.109000", "143208.109000", "143208.109000", "143208.125000", "143208.125000", "143208.125000", "143208.125000", "143208.125000", "143208.125000", "143208.125000", "143208.125000", "143208.140000", "143248.093000", "143248.093000", "143248.093000", "143248.093000", "143248.109000", "143248.109000", "143248.125000", "143248.125000", "143248.125000", "143248.125000", "143248.140000", "143248.140000", "143248.140000", "143248.140000", "143248.140000", "143248.140000", "143248.140000", "143248.140000", "143248.156000", "143248.156000", "143328.093000", "143328.093000", "143328.093000", "143328.109000", "143328.109000", "143328.109000", "143328.109000", "143328.109000", "143328.109000", "143328.109000", "143328.109000", "143328.125000", "143328.125000", "143328.125000", "143328.125000", "143328.125000", "143328.125000", "143328.125000", "143328.125000", "143328.140000", "143408.093000", "143408.093000", "143408.109000", "143408.109000", "143408.109000", "143408.109000", "143408.125000", "143408.125000", "143408.125000", "143408.125000", "143408.125000", "143408.125000", "143408.125000", "143408.125000", "143408.140000", "143408.140000", "143408.140000", "143408.156000", "143408.156000", "143408.156000", "143448.093000", "143448.093000", "143448.093000", "143448.093000", "143448.109000", "143448.109000", "143448.109000", "143448.109000", "143448.109000", "143448.109000", "143448.109000", "143448.125000", "143448.125000", "143448.125000", "143448.125000", "143448.125000", "143448.125000", "143448.140000", "143448.140000", "143448.156000", "143528.093000", "143528.093000", "143528.093000", "143528.109000", "143528.109000", "143528.109000", "143528.109000", "143528.109000", "143528.109000", "143528.109000", "143528.109000", "143528.125000", "143528.125000", "143528.125000", "143528.125000", "143528.125000", "143528.125000", "143528.125000", "143528.140000", "143528.140000", "143549.671000", "143549.687000", "143549.687000", "143549.687000", "143549.687000", "143549.687000", "143549.687000", "143549.687000", "143549.703000", "143549.703000", "143549.703000"],
      "InstanceCreationTime": ["142648.140000", "142648.140000", "142648.156000", "142648.156000", "142648.156000", "142648.156000", "142648.156000", "142648.156000", "142648.171000", "142648.171000", "142648.171000", "142648.171000", "142648.171000", "142648.171000", "142648.171000", "142648.171000", "142648.187000", "142648.187000", "142648.187000", "142648.187000", "142648.187000", "142648.187000", "142648.187000", "142648.203000", "142648.203000", "142648.203000", "142648.203000", "142648.203000", "142648.218000", "142728.093000", "142728.093000", "142728.093000", "142728.093000", "142728.109000", "142728.109000", "142728.125000", "142728.125000", "142728.125000", "142728.125000", "142728.125000", "142728.125000", "142728.140000", "142728.140000", "142728.140000", "142728.140000", "142728.140000", "142728.156000", "142728.156000", "142728.156000", "142808.093000", "142808.093000", "142808.093000", "142808.093000", "142808.109000", "142808.109000", "142808.109000", "142808.109000", "142808.109000", "142808.109000", "142808.109000", "142808.125000", "142808.125000", "142808.125000", "142808.125000", "142808.125000", "142808.125000", "142808.125000", "142808.125000", "142808.140000", "142848.093000", "142848.093000", "142848.109000", "142848.109000", "142848.109000", "142848.109000", "142848.109000", "142848.109000", "142848.109000", "142848.125000", "142848.125000", "142848.125000", "142848.125000", "142848.140000", "142848.140000", "142848.140000", "142848.140000", "142848.140000", "142848.156000", "142848.156000", "142928.093000", "142928.093000", "142928.093000", "142928.109000", "142928.109000", "142928.109000", "142928.109000", "142928.109000", "142928.109000", "142928.109000", "142928.109000", "142928.125000", "142928.125000", "142928.125000", "142928.125000", "142928.125000", "142928.125000", "142928.125000", "142928.125000", "142928.140000", "143008.093000", "143008.093000", "143008.093000", "143008.109000", "143008.109000", "143008.109000", "143008.125000", "143008.125000", "143008.125000", "143008.125000", "143008.125000", "143008.125000", "143008.125000", "143008.140000", "143008.140000", "143008.140000", "143008.140000", "143008.140000", "143008.140000", "143008.156000", "143048.093000", "143048.093000", "143048.093000", "143048.109000", "143048.109000", "143048.109000", "143048.109000", "143048.109000", "143048.109000", "143048.109000", "143048.109000", "143048.125000", "143048.125000", "143048.125000", "143048.125000", "143048.125000", "143048.140000", "143048.140000", "143048.140000", "143048.140000", "143128.093000", "143128.093000", "143128.093000", "143128.109000", "143128.109000", "143128.109000", "143128.109000", "143128.109000", "143128.125000", "143128.125000", "143128.125000", "143128.125000", "143128.140000", "143128.140000", "143128.140000", "143128.140000", "143128.140000", "143128.140000", "143128.140000", "143128.156000", "143208.093000", "143208.093000", "143208.093000", "143208.109000", "143208.109000", "143208.109000", "143208.109000", "143208.109000", "143208.109000", "143208.109000", "143208.109000", "143208.125000", "143208.125000", "143208.125000", "143208.125000", "143208.125000", "143208.125000", "143208.125000", "143208.125000", "143208.140000", "143248.093000", "143248.093000", "143248.093000", "143248.093000", "143248.109000", "143248.109000", "143248.125000", "143248.125000", "143248.125000", "143248.125000", "143248.140000", "143248.140000", "143248.140000", "143248.140000", "143248.140000", "143248.140000", "143248.140000", "143248.140000", "143248.156000", "143248.156000", "143328.093000", "143328.093000", "143328.093000", "143328.109000", "143328.109000", "143328.109000", "143328.109000", "143328.109000", "143328.109000", "143328.109000", "143328.109000", "143328.125000", "143328.125000", "143328.125000", "143328.125000", "143328.125000", "143328.125000", "143328.125000", "143328.125000", "143328.140000", "143408.093000", "143408.093000", "143408.109000", "143408.109000", "143408.109000", "143408.109000", "143408.125000", "143408.125000", "143408.125000", "143408.125000", "143408.125000", "143408.125000", "143408.125000", "143408.125000", "143408.140000", "143408.140000", "143408.140000", "143408.156000", "143408.156000", "143408.156000", "143448.093000", "143448.093000", "143448.093000", "143448.093000", "143448.109000", "143448.109000", "143448.109000", "143448.109000", "143448.109000", "143448.109000", "143448.109000", "143448.125000", "143448.125000", "143448.125000", "143448.125000", "143448.125000", "143448.125000", "143448.140000", "143448.140000", "143448.156000", "143528.093000", "143528.093000", "143528.093000", "143528.109000", "143528.109000", "143528.109000", "143528.109000", "143528.109000", "143528.109000", "143528.109000", "143528.109000", "143528.125000", "143528.125000", "143528.125000", "143528.125000", "143528.125000", "143528.125000", "143528.125000", "143528.140000", "143528.140000", "143549.671000", "143549.687000", "143549.687000", "143549.687000", "143549.687000", "143549.687000", "143549.687000", "143549.687000", "143549.703000", "143549.703000", "143549.703000"],
      "InstanceNumber": [1, 2, 3, 4, 5, 6, 7, 8, 9, 10, 11, 12, 13, 14, 15, 16, 17, 18, 19, 20, 21, 22, 23, 24, 25, 26, 27, 28, 29, 30, 31, 32, 33, 34, 35, 36, 37, 38, 39, 40, 41, 42, 43, 44, 45, 46, 47, 48, 49, 50, 51, 52, 53, 54, 55, 56, 57, 58, 59, 60, 61, 62, 63, 64, 65, 66, 67, 68, 69, 70, 71, 72, 73, 74, 75, 76, 77, 78, 79, 80, 81, 82, 83, 84, 85, 86, 87, 88, 89, 90, 91, 92, 93, 94, 95, 96, 97, 98, 99, 100, 101, 102, 103, 104, 105, 106, 107, 108, 109, 110, 111, 112, 113, 114, 115, 116, 117, 118, 119, 120, 121, 122, 123, 124, 125, 126, 127, 128, 129, 130, 131, 132, 133, 134, 135, 136, 137, 138, 139, 140, 141, 142, 143, 144, 145, 146, 147, 148, 149, 150, 151, 152, 153, 154, 155, 156, 157, 158, 159, 160, 161, 162, 163, 164, 165, 166, 167, 168, 169, 170, 171, 172, 173, 174, 175, 176, 177, 178, 179, 180, 181, 182, 183, 184, 185, 186, 187, 188, 189, 190, 191, 192, 193, 194, 195, 196, 197, 198, 199, 200, 201, 202, 203, 204, 205, 206, 207, 208, 209, 210, 211, 212, 213, 214, 215, 216, 217, 218, 219, 220, 221, 222, 223, 224, 225, 226, 227, 228, 229, 230, 231, 232, 233, 234, 235, 236, 237, 238, 239, 240, 241, 242, 243, 244, 245, 246, 247, 248, 249, 250, 251, 252, 253, 254, 255, 256, 257, 258, 259, 260, 261, 262, 263, 264, 265, 266, 267, 268, 269, 270, 271, 272, 273, 274, 275, 276, 277, 278, 279, 280, 281, 282, 283, 284, 285, 286, 287, 288, 289, 290, 291, 292, 293, 294, 295, 296, 297, 298, 299, 300],
      "LargestImagePixelValue": [1450, 1523, 1518, 1609, 1612, 1398, 1473, 1595, 1558, 1448, 1519, 1491, 1450, 1471, 1526, 1685, 1460, 1521, 1530, 1576, 1417, 1525, 1567, 1539, 1411, 1434, 1460, 1529, 1495, 1437, 1522, 1535, 1893, 1483, 1489, 1704, 1468, 1534, 1750, 1672, 1437, 1454, 1487, 1486, 1503, 1407, 1581, 1496, 1485, 1519, 1494, 1511, 1540, 1558, 1531, 1529, 1523, 1451, 1433, 1518, 1612, 1728, 1772, 1747, 1441, 1468, 1525, 1527, 1528, 1538, 1562, 1411, 1447, 1490, 1532, 1536, 1517, 1514, 1455, 1608, 1522, 1480, 1490, 1503, 1549, 1935, 1510, 1444, 1509, 1603, 1612, 1987, 2242, 1734, 1482, 1683, 1691, 1448, 1634, 1688, 1455, 1598, 1444, 1462, 1737, 1519, 1465, 1616, 1732, 1485, 1708, 1741, 1703, 1497, 1498, 1684, 1724, 1758, 1451, 1472, 1481, 1600, 1543, 1564, 1557, 1707, 1678, 1523, 1492, 1514, 1558, 1633, 1641, 1452, 1439, 1561, 1646, 1634, 1547, 1513, 1533, 1561, 1513, 1648, 1529, 1497, 1553, 1566, 1643, 1600, 1566, 1548, 1534, 1712, 1931, 1488, 1509, 1698, 1529, 1523, 1504, 1511, 1538, 1529, 1502, 1632, 1644, 1612, 1829, 1857, 1505, 1650, 1508, 1593, 1513, 1592, 1537, 1710, 1626, 1595, 1449, 1494, 1562, 1677, 1626, 1872, 1534, 1527, 1689, 1549, 1762, 1490, 1577, 1480, 1453, 1524, 1550, 1616, 1722, 1675, 1834, 1720, 1465, 1505, 1510, 1538, 1593, 1501, 1529, 1538, 1666, 1842, 1535, 1720, 1531, 1631, 1565, 1535, 1523, 1511, 1503, 1459, 1760, 1492, 1609, 1568, 1569, 1566, 1548, 1581, 1458, 1481, 1481, 1506, 1508, 1540, 1562, 1540, 1589, 1440, 1662, 1498, 1665, 1895, 1644, 1715, 1610, 1555, 1554, 1507, 1667, 1573, 1507, 1480, 1498, 1511, 1517, 1509, 1521, 1552, 1568, 1589, 1481, 1568, 1859, 1491, 1480, 1569, 1621, 1637, 1630, 1602, 1619, 1526, 1472, 1712, 1482, 1486, 1477, 1515, 1549, 1552, 1480, 1609, 1777, 1519, 1668, 1620, 1599, 1584, 1790, 1482, 1457, 1483, 1510, 1519, 1521, 1540, 1568, 1851],
      "WindowCenter": [615.0, 613.0, 612.0, 611.0, 611.0, 610.0, 612.0, 612.0, 612.0, 610.0, 610.0, 610.0, 611.0, 612.0, 613.0, 614.0, 611.0, 610.0, 611.0, 612.0, 611.0, 613.0, 613.0, 612.0, 611.0, 612.0, 613.0, 613.0, 614.0, 614.0, 615.0, 614.0, 615.0, 615.0, 616.0, 618.0, 613.0, 612.0, 611.0, 610.0, 608.0, 608.0, 608.0, 609.0, 610.0, 612.0, 616.0, 614.0, 613.0, 613.0, 614.0, 617.0, 617.0, 616.0, 615.0, 615.0, 615.0, 615.0, 616.0, 618.0, 617.0, 615.0, 613.0, 611.0, 610.0, 611.0, 612.0, 614.0, 614.0, 614.0, 615.0, 616.0, 618.0, 617.0, 616.0, 614.0, 615.0, 618.0, 618.0, 619.0, 616.0, 615.0, 614.0, 616.0, 618.0, 619.0, 615.0, 613.0, 614.0, 612.0, 621.0, 623.0, 619.0, 613.0, 609.0, 610.0, 607.0, 605.0, 607.0, 608.0, 607.0, 609.0, 611.0, 613.0, 615.0, 613.0, 613.0, 615.0, 616.0, 616.0, 618.0, 618.0, 616.0, 616.0, 616.0, 617.0, 617.0, 616.0, 614.0, 616.0, 616.0, 616.0, 615.0, 615.0, 616.0, 619.0, 620.0, 618.0, 618.0, 618.0, 618.0, 618.0, 619.0, 617.0, 618.0, 619.0, 618.0, 616.0, 615.0, 615.0, 616.0, 618.0, 617.0, 618.0, 617.0, 618.0, 620.0, 618.0, 618.0, 617.0, 616.0, 617.0, 618.0, 619.0, 618.0, 614.0, 613.0, 613.0, 611.0, 611.0, 612.0, 613.0, 615.0, 616.0, 617.0, 619.0, 621.0, 620.0, 620.0, 620.0, 618.0, 619.0, 618.0, 619.0, 619.0, 621.0, 620.0, 620.0, 619.0, 618.0, 618.0, 618.0, 620.0, 621.0, 620.0, 618.0, 615.0, 614.0, 614.0, 612.0, 614.0, 613.0, 615.0, 616.0, 616.0, 617.0, 618.0, 619.0, 620.0, 619.0, 618.0, 617.0, 616.0, 617.0, 619.0, 620.0, 619.0, 618.0, 617.0, 618.0, 621.0, 623.0, 620.0, 620.0, 616.0, 617.0, 616.0, 617.0, 617.0, 619.0, 620.0, 620.0, 621.0, 618.0, 620.0, 618.0, 617.0, 616.0, 615.0, 615.0, 614.0, 616.0, 617.0, 618.0, 618.0, 618.0, 619.0, 620.0, 621.0, 620.0, 624.0, 621.0, 622.0, 621.0, 617.0, 616.0, 614.0, 613.0, 613.0, 614.0, 617.0, 619.0, 619.0, 619.0, 618.0, 618.0, 618.0, 619.0, 619.0, 620.0, 619.0, 620.0, 619.0, 621.0, 623.0, 621.0, 620.0, 620.0, 620.0, 620.0, 620.0, 618.0, 617.0, 615.0, 615.0, 618.0, 618.0, 619.0, 620.0, 620.0, 620.0, 622.0, 621.0, 622.0, 623.0, 619.0, 619.0, 616.0, 615.0, 616.0, 618.0, 617.0, 617.0, 618.0, 619.0, 620.0, 620.0, 620.0, 620.0, 621.0],
      "WindowWidth": [1292.0, 1286.0, 1284.0, 1283.0, 1282.0, 1281.0, 1284.0, 1285.0, 1284.0, 1281.0, 1281.0, 1280.0, 1283.0, 1285.0, 1287.0, 1289.0, 1282.0, 1281.0, 1282.0, 1284.0, 1284.0, 1286.0, 1286.0, 1284.0, 1283.0, 1284.0, 1287.0, 1288.0, 1289.0, 1290.0, 1291.0, 1289.0, 1292.0, 1291.0, 1292.0, 1298.0, 1287.0, 1284.0, 1283.0, 1280.0, 1276.0, 1276.0, 1277.0, 1279.0, 1280.0, 1285.0, 1292.0, 1289.0, 1287.0, 1288.0, 1289.0, 1295.0, 1296.0, 1294.0, 1292.0, 1290.0, 1291.0, 1291.0, 1295.0, 1299.0, 1296.0, 1292.0, 1287.0, 1283.0, 1280.0, 1283.0, 1285.0, 1289.0, 1288.0, 1290.0, 1291.0, 1294.0, 1298.0, 1296.0, 1293.0, 1289.0, 1292.0, 1297.0, 1299.0, 1300.0, 1294.0, 1291.0, 1289.0, 1293.0, 1298.0, 1300.0, 1291.0, 1288.0, 1290.0, 1287.0, 1306.0, 1310.0, 1299.0, 1286.0, 1279.0, 1279.0, 1274.0, 1270.0, 1274.0, 1275.0, 1274.0, 1279.0, 1282.0, 1287.0, 1291.0, 1287.0, 1288.0, 1290.0, 1293.0, 1293.0, 1298.0, 1296.0, 1294.0, 1293.0, 1293.0, 1295.0, 1295.0, 1293.0, 1289.0, 1293.0, 1293.0, 1294.0, 1291.0, 1291.0, 1294.0, 1299.0, 1301.0, 1298.0, 1298.0, 1297.0, 1297.0, 1298.0, 1299.0, 1297.0, 1298.0, 1300.0, 1297.0, 1294.0, 1292.0, 1291.0, 1294.0, 1298.0, 1296.0, 1298.0, 1296.0, 1299.0, 1302.0, 1299.0, 1298.0, 1295.0, 1295.0, 1296.0, 1298.0, 1301.0, 1298.0, 1289.0, 1288.0, 1287.0, 1282.0, 1284.0, 1284.0, 1287.0, 1291.0, 1293.0, 1296.0, 1300.0, 1304.0, 1303.0, 1303.0, 1302.0, 1298.0, 1301.0, 1298.0, 1300.0, 1301.0, 1306.0, 1303.0, 1303.0, 1299.0, 1298.0, 1297.0, 1299.0, 1303.0, 1305.0, 1304.0, 1299.0, 1291.0, 1289.0, 1289.0, 1284.0, 1288.0, 1287.0, 1292.0, 1293.0, 1294.0, 1295.0, 1297.0, 1300.0, 1302.0, 1299.0, 1297.0, 1294.0, 1293.0, 1297.0, 1300.0, 1303.0, 1301.0, 1298.0, 1297.0, 1298.0, 1305.0, 1308.0, 1302.0, 1301.0, 1295.0, 1296.0, 1295.0, 1296.0, 1296.0, 1301.0, 1302.0, 1303.0, 1304.0, 1298.0, 1302.0, 1299.0, 1296.0, 1294.0, 1291.0, 1291.0, 1291.0, 1295.0, 1297.0, 1299.0, 1299.0, 1299.0, 1301.0, 1304.0, 1306.0, 1304.0, 1310.0, 1306.0, 1308.0, 1305.0, 1296.0, 1293.0, 1289.0, 1288.0, 1288.0, 1289.0, 1296.0, 1300.0, 1301.0, 1301.0, 1299.0, 1299.0, 1299.0, 1301.0, 1302.0, 1302.0, 1301.0, 1303.0, 1302.0, 1305.0, 1309.0, 1306.0, 1303.0, 1303.0, 1304.0, 1303.0, 1303.0, 1297.0, 1295.0, 1292.0, 1292.0, 1297.0, 1299.0, 1301.0, 1303.0, 1303.0, 1303.0, 1306.0, 1305.0, 1308.0, 1309.0, 1302.0, 1302.0, 1295.0, 1292.0, 1294.0, 1299.0, 1297.0, 1297.0, 1299.0, 1301.0, 1303.0, 1303.0, 1304.0, 1303.0, 1305.0]
    },
    "slices": {}
  }
}