{
  "AcquisitionMatrixPE": 74,
  "AcquisitionNumber": 1,
  "AcquisitionTime": "09:27:7.585000",
  "BandwidthPerPixelPhaseEncode": 27.579,
  "BaseResolution": 74,
  "BodyPartExamined": "HEAD",
  "CoilString": "t:HEA;HEP",
  "ConversionSoftware": "dcm2niix",
  "ConversionSoftwareVersion": "v1.0.20190410  GCC6.3.0",
  "DerivedVendorReportedEchoSpacing": 0.000489993,
  "DeviceSerialNumber": "35256",
  "DwellTime": 2.4e-06,
  "EchoTime": 0.03,
  "EffectiveEchoSpacing": 0.000489993,
  "FlipAngle": 70,
  "ImageOrientationPatientDICOM": [1, 0, 0, 0, 1, 0],
  "ImageType": [
    "ORIGINAL",
    "PRIMARY",
    "M",
    "ND",
    "NORM",
    "MOSAIC"
],
  "ImagingFrequency": 123.223,
  "InPlanePhaseEncodingDirectionDICOM": "COL",
  "InstitutionAddress": "East_Lee_St._2907_Greensboro_NC_US_27401",
  "InstitutionName": "JSNN",
  "InstitutionalDepartmentName": "Department",
  "MRAcquisitionType": "2D",
  "MagneticFieldStrength": 3,
  "Manufacturer": "Siemens",
  "ManufacturersModelName": "TrioTim",
  "Modality": "MR",
  "PartialFourier": 1,
  "PatientPosition": "HFS",
  "PercentPhaseFOV": 100,
  "PhaseEncodingDirection": "j-",
  "PhaseEncodingSteps": 74,
  "PhaseResolution": 1,
  "PixelBandwidth": 2815,
  "ProcedureStepDescription": "head_Cassidy",
  "ProtocolName": "RestingState",
  "PulseSequenceDetails": "%SiemensSeq%_ep2d_bold",
  "ReceiveCoilName": "HeadMatrix",
  "ReconMatrixPE": 74,
  "RepetitionTime": 2,
  "SAR": 0.113389,
  "ScanOptions": "FS",
  "ScanningSequence": "EP",
  "SequenceName": "_epfid2d1_74",
  "SequenceVariant": "SK",
  "SeriesDescription": "RestingState",
  "SeriesNumber": 3,
  "ShimSetting": [1384, 10518, -8717, 472, 121, -564, -196, -86],
  "SliceThickness": 4,
  "SliceTiming": [1.9425, 1.88, 1.8175, 1.755, 1.6925, 1.63, 1.5675, 1.505, 1.4425, 1.38, 1.315, 1.2525, 1.19, 1.1275, 1.065, 1.0025, 0.94, 0.8775, 0.815, 0.7525, 0.69, 0.625, 0.5625, 0.5, 0.4375, 0.375, 0.3125, 0.25, 0.1875, 0.125, 0.0625, 0],
  "SoftwareVersions": "syngo_MR_B19",
  "SpacingBetweenSlices": 4,
  "StationName": "JSNNMRI",
  "TaskName": "rest",
  "TotalReadoutTime": 0.0357695,
  "TxRefAmp": 275.047,
  "dcmmeta_affine": [
    [-2.972972869873047, 0.0, 0.0, 105.18071746826172],
    [0.0, 2.972972869873047, 0.0, -90.7968521118164],
    [0.0, 0.0, 4.0, -48.42369842529297],
    [0.0, 0.0, 0.0, 1.0]
],
  "dcmmeta_reorient_transform": [
    [0.0, -1.0, 0.0, 73.0],
    [1.0, 0.0, 0.0, 0.0],
    [0.0, 0.0, 1.0, 0.0],
    [0.0, 0.0, 0.0, 1.0]
],
  "dcmmeta_shape": [74, 74, 32, 300],
  "dcmmeta_slice_dim": 2,
  "dcmmeta_version": 0.6,
  "global": {
    "const": {
      "AcquisitionMatrix": [74, 0, 0, 74],
      "AngioFlag": "N",
      "BitsAllocated": 16,
      "BitsStored": 12,
      "BodyPartExamined": "HEAD",
      "Columns": 444,
      "EchoNumbers": 1,
      "EchoTime": 30.0,
      "EchoTrainLength": 1,
      "FlipAngle": 70.0,
      "HighBit": 11,
      "ImageOrientationPatient": [1.0, 0.0, 0.0, 0.0, 1.0, 0.0],
      "ImagePositionPatient": [-655.18069982529, -676.23014640808, -48.423698425293],
      "ImageType": [
        "ORIGINAL",
        "PRIMARY",
        "M",
        "ND",
        "NORM",
        "MOSAIC"
],
      "ImagedNucleus": "1H",
      "ImagingFrequency": 123.223115,
      "InPlanePhaseEncodingDirection": "COL",
      "MRAcquisitionType": "2D",
      "MagneticFieldStrength": 3.0,
      "Manufacturer": "SIEMENS",
      "ManufacturerModelName": "TrioTim",
      "Modality": "MR",
      "NumberOfAverages": 1.0,
      "NumberOfPhaseEncodingSteps": 74,
      "PercentPhaseFieldOfView": 100.0,
      "PercentSampling": 100.0,
      "PerformedProcedureStepStartTime": "091840.218000",
      "PhotometricInterpretation": "MONOCHROME2",
      "PixelBandwidth": 2815.0,
      "PixelRepresentation": 0,
      "PixelSpacing": [2.972972869873, 2.972972869873],
      "ProtocolName": "RestingState",
      "RepetitionTime": 2000.0,
      "Rows": 444,
      "SAR": 0.11338911621832,
      "SamplesPerPixel": 1,
      "ScanOptions": "FS",
      "ScanningSequence": "EP",
      "SequenceName": "*epfid2d1_74",
      "SequenceVariant": "SK",
      "SeriesDescription": "RestingState",
      "SeriesNumber": 3,
      "SeriesTime": "092753.812000",
      "SliceLocation": -48.423698425293,
      "SliceThickness": 4.0,
      "SmallestImagePixelValue": 0,
      "SoftwareVersions": "syngo MR B19",
      "SpacingBetweenSlices": 4.0,
      "SpecificCharacterSet": "ISO_IR 100",
      "StudyID": "1",
      "StudyTime": "091840.187000",
      "TransmitCoilName": "Body",
      "VariableFlipAngleFlag": "N",
      "WindowCenterWidthExplanation": "Algo1",
      "dBdt": 0.0},
    "slices": {}
  },
  "time": {
    "samples": {
      "AcquisitionNumber": [1, 2, 3, 4, 5, 6, 7, 8, 9, 10, 11, 12, 13, 14, 15, 16, 17, 18, 19, 20, 21, 22, 23, 24, 25, 26, 27, 28, 29, 30, 31, 32, 33, 34, 35, 36, 37, 38, 39, 40, 41, 42, 43, 44, 45, 46, 47, 48, 49, 50, 51, 52, 53, 54, 55, 56, 57, 58, 59, 60, 61, 62, 63, 64, 65, 66, 67, 68, 69, 70, 71, 72, 73, 74, 75, 76, 77, 78, 79, 80, 81, 82, 83, 84, 85, 86, 87, 88, 89, 90, 91, 92, 93, 94, 95, 96, 97, 98, 99, 100, 101, 102, 103, 104, 105, 106, 107, 108, 109, 110, 111, 112, 113, 114, 115, 116, 117, 118, 119, 120, 121, 122, 123, 124, 125, 126, 127, 128, 129, 130, 131, 132, 133, 134, 135, 136, 137, 138, 139, 140, 141, 142, 143, 144, 145, 146, 147, 148, 149, 150, 151, 152, 153, 154, 155, 156, 157, 158, 159, 160, 161, 162, 163, 164, 165, 166, 167, 168, 169, 170, 171, 172, 173, 174, 175, 176, 177, 178, 179, 180, 181, 182, 183, 184, 185, 186, 187, 188, 189, 190, 191, 192, 193, 194, 195, 196, 197, 198, 199, 200, 201, 202, 203, 204, 205, 206, 207, 208, 209, 210, 211, 212, 213, 214, 215, 216, 217, 218, 219, 220, 221, 222, 223, 224, 225, 226, 227, 228, 229, 230, 231, 232, 233, 234, 235, 236, 237, 238, 239, 240, 241, 242, 243, 244, 245, 246, 247, 248, 249, 250, 251, 252, 253, 254, 255, 256, 257, 258, 259, 260, 261, 262, 263, 264, 265, 266, 267, 268, 269, 270, 271, 272, 273, 274, 275, 276, 277, 278, 279, 280, 281, 282, 283, 284, 285, 286, 287, 288, 289, 290, 291, 292, 293, 294, 295, 296, 297, 298, 299, 300],
      "AcquisitionTime": ["092707.585000", "092709.595000", "092711.602500", "092713.610000", "092715.617500", "092717.625000", "092719.635000", "092721.642500", "092723.650000", "092725.657500", "092727.667500", "092729.675000", "092731.682500", "092733.690000", "092735.697500", "092737.707500", "092739.715000", "092741.722500", "092743.730000", "092745.737500", "092747.747500", "092749.755000", "092751.762500", "092753.770000", "092755.780000", "092757.787500", "092759.795000", "092801.802500", "092803.810000", "092805.820000", "092807.827500", "092809.835000", "092811.842500", "092813.850000", "092815.860000", "092817.867500", "092819.875000", "092821.882500", "092823.892500", "092825.900000", "092827.907500", "092829.915000", "092831.922500", "092833.932500", "092835.940000", "092837.947500", "092839.955000", "092841.962500", "092843.972500", "092845.980000", "092847.987500", "092849.995000", "092852.002500", "092854.012500", "092856.020000", "092858.027500", "092900.035000", "092902.045000", "092904.052500", "092906.060000", "092908.067500", "092910.075000", "092912.085000", "092914.092500", "092916.100000", "092918.107500", "092920.115000", "092922.125000", "092924.132500", "092926.140000", "092928.147500", "092930.157500", "092932.165000", "092934.172500", "092936.180000", "092938.187500", "092940.197500", "092942.205000", "092944.212500", "092946.220000", "092948.227500", "092950.237500", "092952.245000", "092954.252500", "092956.260000", "092958.270000", "093000.277500", "093002.285000", "093004.292500", "093006.300000", "093008.310000", "093010.317500", "093012.325000", "093014.332500", "093016.340000", "093018.350000", "093020.357500", "093022.365000", "093024.372500", "093026.380000", "093028.390000", "093030.397500", "093032.405000", "093034.412500", "093036.422500", "093038.430000", "093040.437500", "093042.445000", "093044.452500", "093046.462500", "093048.470000", "093050.477500", "093052.485000", "093054.492500", "093056.502500", "093058.510000", "093100.517500", "093102.525000", "093104.535000", "093106.542500", "093108.550000", "093110.557500", "093112.565000", "093114.575000", "093116.582500", "093118.590000", "093120.597500", "093122.605000", "093124.615000", "093126.622500", "093128.630000", "093130.637500", "093132.647500", "093134.655000", "093136.662500", "093138.670000", "093140.677500", "093142.687500", "093144.695000", "093146.702500", "093148.710000", "093150.717500", "093152.727500", "093154.735000", "093156.742500", "093158.750000", "093200.757500", "093202.767500", "093204.775000", "093206.782500", "093208.790000", "093210.800000", "093212.807500", "093214.815000", "093216.822500", "093218.830000", "093220.840000", "093222.847500", "093224.855000", "093226.862500", "093228.870000", "093230.880000", "093232.887500", "093234.895000", "093236.902500", "093238.912500", "093240.920000", "093242.927500", "093244.935000", "093246.942500", "093248.952500", "093250.960000", "093252.967500", "093254.975000", "093256.982500", "093258.992500", "093301.000000", "093303.007500", "093305.015000", "093307.025000", "093309.032500", "093311.040000", "093313.047500", "093315.055000", "093317.065000", "093319.072500", "093321.080000", "093323.087500", "093325.095000", "093327.105000", "093329.112500", "093331.120000", "093333.127500", "093335.137500", "093337.145000", "093339.152500", "093341.160000", "093343.167500", "093345.177500", "093347.185000", "093349.192500", "093351.200000", "093353.207500", "093355.217500", "093357.225000", "093359.232500", "093401.240000", "093403.247500", "093405.257500", "093407.265000", "093409.272500", "093411.280000", "093413.290000", "093415.297500", "093417.305000", "093419.312500", "093421.320000", "093423.330000", "093425.337500", "093427.345000", "093429.352500", "093431.360000", "093433.370000", "093435.377500", "093437.385000", "093439.392500", "093441.402500", "093443.410000", "093445.417500", "093447.425000", "093449.432500", "093451.442500", "093453.450000", "093455.457500", "093457.465000", "093459.472500", "093501.482500", "093503.490000", "093505.497500", "093507.505000", "093509.515000", "093511.522500", "093513.530000", "093515.537500", "093517.545000", "093519.555000", "093521.562500", "093523.570000", "093525.577500", "093527.585000", "093529.595000", "093531.602500", "093533.610000", "093535.617500", "093537.625000", "093539.635000", "093541.642500", "093543.650000", "093545.657500", "093547.667500", "093549.675000", "093551.682500", "093553.690000", "093555.697500", "093557.707500", "093559.715000", "093601.722500", "093603.730000", "093605.737500", "093607.747500", "093609.755000", "093611.762500", "093613.770000", "093615.780000", "093617.787500", "093619.795000", "093621.802500", "093623.810000", "093625.820000", "093627.827500", "093629.835000", "093631.842500", "093633.850000", "093635.860000", "093637.867500", "093639.875000", "093641.882500", "093643.892500", "093645.900000", "093647.907500", "093649.915000", "093651.922500", "093653.932500", "093655.940000", "093657.947500", "093659.955000", "093701.962500", "093703.972500", "093705.980000", "093707.987500"],
      "ContentTime": ["092753.812000", "092753.828000", "092753.828000", "092753.828000", "092753.828000", "092753.828000", "092753.828000", "092753.828000", "092753.843000", "092753.843000", "092753.843000", "092753.843000", "092753.843000", "092753.843000", "092753.843000", "092753.859000", "092753.859000", "092753.859000", "092753.859000", "092753.859000", "092753.859000", "092753.859000", "092753.859000", "092833.812000", "092833.812000", "092833.812000", "092833.828000", "092833.828000", "092833.828000", "092833.828000", "092833.828000", "092833.828000", "092833.828000", "092833.843000", "092833.843000", "092833.859000", "092833.859000", "092833.859000", "092833.859000", "092833.859000", "092833.859000", "092833.875000", "092833.875000", "092913.812000", "092913.812000", "092913.812000", "092913.828000", "092913.828000", "092913.828000", "092913.828000", "092913.828000", "092913.843000", "092913.843000", "092913.843000", "092913.843000", "092913.843000", "092913.843000", "092913.843000", "092913.859000", "092913.859000", "092913.859000", "092913.859000", "092913.859000", "092953.812000", "092953.812000", "092953.812000", "092953.828000", "092953.828000", "092953.828000", "092953.828000", "092953.843000", "092953.843000", "092953.843000", "092953.843000", "092953.859000", "092953.859000", "092953.859000", "092953.859000", "092953.859000", "092953.859000", "092953.875000", "092953.875000", "092953.875000", "093033.812000", "093033.812000", "093033.812000", "093033.828000", "093033.828000", "093033.828000", "093033.843000", "093033.843000", "093033.843000", "093033.843000", "093033.843000", "093033.843000", "093033.859000", "093033.859000", "093033.859000", "093033.859000", "093033.859000", "093033.859000", "093033.859000", "093033.875000", "093113.812000", "093113.812000", "093113.812000", "093113.828000", "093113.828000", "093113.828000", "093113.828000", "093113.828000", "093113.828000", "093113.828000", "093113.843000", "093113.843000", "093113.843000", "093113.843000", "093113.843000", "093113.843000", "093113.843000", "093113.859000", "093113.859000", "093113.859000", "093153.812000", "093153.812000", "093153.812000", "093153.828000", "093153.828000", "093153.828000", "093153.828000", "093153.828000", "093153.828000", "093153.828000", "093153.843000", "093153.843000", "093153.843000", "093153.843000", "093153.843000", "093153.843000", "093153.843000", "093153.843000", "093153.859000", "093153.859000", "093233.812000", "093233.812000", "093233.812000", "093233.828000", "093233.828000", "093233.828000", "093233.828000", "093233.843000", "093233.843000", "093233.843000", "093233.843000", "093233.843000", "093233.843000", "093233.843000", "093233.859000", "093233.859000", "093233.859000", "093233.875000", "093233.875000", "093233.890000", "093313.812000", "093313.812000", "093313.812000", "093313.828000", "093313.843000", "093313.843000", "093313.843000", "093313.843000", "093313.843000", "093313.843000", "093313.843000", "093313.859000", "093313.859000", "093313.859000", "093313.859000", "093313.859000", "093313.859000", "093313.859000", "093313.859000", "093313.875000", "093353.812000", "093353.812000", "093353.812000", "093353.828000", "093353.828000", "093353.828000", "093353.828000", "093353.828000", "093353.828000", "093353.843000", "093353.843000", "093353.843000", "093353.843000", "093353.859000", "093353.859000", "093353.859000", "093353.859000", "093353.859000", "093353.859000", "093353.859000", "093433.812000", "093433.812000", "093433.812000", "093433.828000", "093433.828000", "093433.828000", "093433.828000", "093433.828000", "093433.828000", "093433.828000", "093433.843000", "093433.843000", "093433.843000", "093433.843000", "093433.843000", "093433.843000", "093433.843000", "093433.843000", "093433.859000", "093433.859000", "093513.812000", "093513.812000", "093513.812000", "093513.828000", "093513.828000", "093513.828000", "093513.828000", "093513.828000", "093513.828000", "093513.828000", "093513.843000", "093513.843000", "093513.843000", "093513.843000", "093513.859000", "093513.859000", "093513.859000", "093513.859000", "093513.859000", "093513.859000", "093553.812000", "093553.812000", "093553.812000", "093553.828000", "093553.828000", "093553.828000", "093553.828000", "093553.828000", "093553.828000", "093553.828000", "093553.843000", "093553.843000", "093553.843000", "093553.843000", "093553.843000", "093553.843000", "093553.843000", "093553.843000", "093553.859000", "093553.859000", "093633.812000", "093633.812000", "093633.812000", "093633.828000", "093633.828000", "093633.828000", "093633.828000", "093633.828000", "093633.828000", "093633.828000", "093633.843000", "093633.843000", "093633.843000", "093633.843000", "093633.843000", "093633.843000", "093633.859000", "093633.859000", "093633.859000", "093633.859000", "093706.140000", "093706.156000", "093706.156000", "093706.156000", "093706.156000", "093706.156000", "093706.156000", "093706.156000", "093706.156000", "093706.171000", "093706.171000", "093706.171000", "093706.171000", "093706.171000", "093706.171000", "093706.187000", "093706.187000"],
      "InstanceCreationTime": ["092753.812000", "092753.828000", "092753.828000", "092753.828000", "092753.828000", "092753.828000", "092753.828000", "092753.828000", "092753.843000", "092753.843000", "092753.843000", "092753.843000", "092753.843000", "092753.843000", "092753.843000", "092753.859000", "092753.859000", "092753.859000", "092753.859000", "092753.859000", "092753.859000", "092753.859000", "092753.859000", "092833.812000", "092833.812000", "092833.812000", "092833.828000", "092833.828000", "092833.828000", "092833.828000", "092833.828000", "092833.828000", "092833.828000", "092833.843000", "092833.843000", "092833.859000", "092833.859000", "092833.859000", "092833.859000", "092833.859000", "092833.859000", "092833.875000", "092833.875000", "092913.812000", "092913.812000", "092913.812000", "092913.828000", "092913.828000", "092913.828000", "092913.828000", "092913.828000", "092913.843000", "092913.843000", "092913.843000", "092913.843000", "092913.843000", "092913.843000", "092913.843000", "092913.859000", "092913.859000", "092913.859000", "092913.859000", "092913.859000", "092953.812000", "092953.812000", "092953.812000", "092953.828000", "092953.828000", "092953.828000", "092953.828000", "092953.843000", "092953.843000", "092953.843000", "092953.843000", "092953.859000", "092953.859000", "092953.859000", "092953.859000", "092953.859000", "092953.859000", "092953.875000", "092953.875000", "092953.875000", "093033.812000", "093033.812000", "093033.812000", "093033.828000", "093033.828000", "093033.828000", "093033.843000", "093033.843000", "093033.843000", "093033.843000", "093033.843000", "093033.843000", "093033.859000", "093033.859000", "093033.859000", "093033.859000", "093033.859000", "093033.859000", "093033.859000", "093033.875000", "093113.812000", "093113.812000", "093113.812000", "093113.828000", "093113.828000", "093113.828000", "093113.828000", "093113.828000", "093113.828000", "093113.828000", "093113.843000", "093113.843000", "093113.843000", "093113.843000", "093113.843000", "093113.843000", "093113.843000", "093113.859000", "093113.859000", "093113.859000", "093153.812000", "093153.812000", "093153.812000", "093153.828000", "093153.828000", "093153.828000", "093153.828000", "093153.828000", "093153.828000", "093153.828000", "093153.843000", "093153.843000", "093153.843000", "093153.843000", "093153.843000", "093153.843000", "093153.843000", "093153.843000", "093153.859000", "093153.859000", "093233.812000", "093233.812000", "093233.812000", "093233.828000", "093233.828000", "093233.828000", "093233.828000", "093233.843000", "093233.843000", "093233.843000", "093233.843000", "093233.843000", "093233.843000", "093233.843000", "093233.859000", "093233.859000", "093233.859000", "093233.875000", "093233.875000", "093233.890000", "093313.812000", "093313.812000", "093313.812000", "093313.828000", "093313.843000", "093313.843000", "093313.843000", "093313.843000", "093313.843000", "093313.843000", "093313.843000", "093313.859000", "093313.859000", "093313.859000", "093313.859000", "093313.859000", "093313.859000", "093313.859000", "093313.859000", "093313.875000", "093353.812000", "093353.812000", "093353.812000", "093353.828000", "093353.828000", "093353.828000", "093353.828000", "093353.828000", "093353.828000", "093353.843000", "093353.843000", "093353.843000", "093353.843000", "093353.859000", "093353.859000", "093353.859000", "093353.859000", "093353.859000", "093353.859000", "093353.859000", "093433.812000", "093433.812000", "093433.812000", "093433.828000", "093433.828000", "093433.828000", "093433.828000", "093433.828000", "093433.828000", "093433.828000", "093433.843000", "093433.843000", "093433.843000", "093433.843000", "093433.843000", "093433.843000", "093433.843000", "093433.843000", "093433.859000", "093433.859000", "093513.812000", "093513.812000", "093513.812000", "093513.828000", "093513.828000", "093513.828000", "093513.828000", "093513.828000", "093513.828000", "093513.828000", "093513.843000", "093513.843000", "093513.843000", "093513.843000", "093513.859000", "093513.859000", "093513.859000", "093513.859000", "093513.859000", "093513.859000", "093553.812000", "093553.812000", "093553.812000", "093553.828000", "093553.828000", "093553.828000", "093553.828000", "093553.828000", "093553.828000", "093553.828000", "093553.843000", "093553.843000", "093553.843000", "093553.843000", "093553.843000", "093553.843000", "093553.843000", "093553.843000", "093553.859000", "093553.859000", "093633.812000", "093633.812000", "093633.812000", "093633.828000", "093633.828000", "093633.828000", "093633.828000", "093633.828000", "093633.828000", "093633.828000", "093633.843000", "093633.843000", "093633.843000", "093633.843000", "093633.843000", "093633.843000", "093633.859000", "093633.859000", "093633.859000", "093633.859000", "093706.140000", "093706.156000", "093706.156000", "093706.156000", "093706.156000", "093706.156000", "093706.156000", "093706.156000", "093706.156000", "093706.171000", "093706.171000", "093706.171000", "093706.171000", "093706.171000", "093706.171000", "093706.187000", "093706.187000"],
      "InstanceNumber": [1, 2, 3, 4, 5, 6, 7, 8, 9, 10, 11, 12, 13, 14, 15, 16, 17, 18, 19, 20, 21, 22, 23, 24, 25, 26, 27, 28, 29, 30, 31, 32, 33, 34, 35, 36, 37, 38, 39, 40, 41, 42, 43, 44, 45, 46, 47, 48, 49, 50, 51, 52, 53, 54, 55, 56, 57, 58, 59, 60, 61, 62, 63, 64, 65, 66, 67, 68, 69, 70, 71, 72, 73, 74, 75, 76, 77, 78, 79, 80, 81, 82, 83, 84, 85, 86, 87, 88, 89, 90, 91, 92, 93, 94, 95, 96, 97, 98, 99, 100, 101, 102, 103, 104, 105, 106, 107, 108, 109, 110, 111, 112, 113, 114, 115, 116, 117, 118, 119, 120, 121, 122, 123, 124, 125, 126, 127, 128, 129, 130, 131, 132, 133, 134, 135, 136, 137, 138, 139, 140, 141, 142, 143, 144, 145, 146, 147, 148, 149, 150, 151, 152, 153, 154, 155, 156, 157, 158, 159, 160, 161, 162, 163, 164, 165, 166, 167, 168, 169, 170, 171, 172, 173, 174, 175, 176, 177, 178, 179, 180, 181, 182, 183, 184, 185, 186, 187, 188, 189, 190, 191, 192, 193, 194, 195, 196, 197, 198, 199, 200, 201, 202, 203, 204, 205, 206, 207, 208, 209, 210, 211, 212, 213, 214, 215, 216, 217, 218, 219, 220, 221, 222, 223, 224, 225, 226, 227, 228, 229, 230, 231, 232, 233, 234, 235, 236, 237, 238, 239, 240, 241, 242, 243, 244, 245, 246, 247, 248, 249, 250, 251, 252, 253, 254, 255, 256, 257, 258, 259, 260, 261, 262, 263, 264, 265, 266, 267, 268, 269, 270, 271, 272, 273, 274, 275, 276, 277, 278, 279, 280, 281, 282, 283, 284, 285, 286, 287, 288, 289, 290, 291, 292, 293, 294, 295, 296, 297, 298, 299, 300],
      "LargestImagePixelValue": [2279, 1799, 1663, 2323, 1793, 1698, 1570, 2229, 1866, 1685, 1658, 1977, 2266, 2050, 1764, 1762, 1837, 1657, 1738, 2145, 1854, 1851, 1720, 1648, 1864, 1733, 2185, 2125, 1852, 1777, 1694, 1836, 1914, 1554, 1604, 1650, 1588, 1759, 2059, 1569, 1572, 1617, 1617, 1650, 1629, 1568, 1859, 1630, 1578, 2140, 1898, 1810, 1827, 1741, 1745, 1898, 1691, 1740, 2268, 1868, 1826, 1703, 1756, 1848, 1921, 1977, 1764, 1640, 1854, 1598, 1939, 1960, 1892, 1878, 1663, 1670, 2316, 1896, 1933, 1694, 1760, 1875, 2322, 2048, 1880, 1654, 1885, 1596, 2153, 1891, 1850, 1843, 1680, 1680, 1928, 2042, 2119, 1877, 1844, 1802, 1716, 1855, 2348, 1986, 1866, 1853, 1703, 1955, 1719, 2412, 1929, 1799, 1874, 1589, 1944, 2198, 1893, 1843, 1798, 1711, 1927, 1695, 1749, 1878, 2194, 1960, 1722, 1744, 1724, 1678, 1735, 2309, 2039, 1924, 1772, 1813, 1881, 1741, 1692, 2134, 1905, 1909, 1776, 1711, 1985, 1610, 2252, 1959, 1812, 1897, 1635, 2043, 1823, 1820, 1825, 1590, 1955, 1985, 1832, 1865, 1750, 1759, 1894, 2200, 2098, 1875, 1878, 1920, 1704, 1809, 2389, 1959, 1780, 1661, 1633, 2475, 2000, 1865, 1750, 1746, 1979, 2375, 2069, 1863, 1724, 1702, 2279, 1881, 1759, 1707, 2524, 2094, 2002, 1894, 1795, 1704, 2032, 1598, 2225, 2043, 1972, 1852, 1829, 1946, 1739, 1633, 1965, 2077, 1845, 1806, 1710, 1668, 1816, 1936, 2070, 1888, 1817, 1828, 2006, 1902, 2471, 2039, 1884, 1836, 1622, 2266, 1925, 1825, 1804, 1699, 2247, 1937, 1793, 1852, 1705, 2330, 1818, 2013, 2048, 2002, 1798, 1719, 1635, 1651, 1953, 1768, 1725, 2038, 1823, 1909, 2698, 2183, 2025, 1855, 2027, 1641, 2163, 2023, 1894, 1968, 1798, 1941, 1828, 2360, 2057, 1856, 1697, 1721, 2021, 1980, 1916, 1878, 1806, 1884, 1984, 1975, 1978, 2189, 1835, 1765, 1666, 2426, 1604, 1702, 1591, 1800, 2430, 1990, 1797, 2005, 1858, 1849, 1713, 2002, 1714, 2487, 2014, 1918, 1844, 1682],
      "WindowCenter": [622.0, 617.0, 614.0, 618.0, 615.0, 614.0, 615.0, 618.0, 617.0, 614.0, 615.0, 617.0, 619.0, 617.0, 615.0, 615.0, 615.0, 614.0, 615.0, 617.0, 616.0, 616.0, 615.0, 614.0, 616.0, 615.0, 618.0, 617.0, 616.0, 616.0, 614.0, 616.0, 616.0, 613.0, 615.0, 615.0, 615.0, 616.0, 617.0, 614.0, 614.0, 615.0, 616.0, 616.0, 615.0, 615.0, 617.0, 615.0, 615.0, 619.0, 617.0, 617.0, 617.0, 617.0, 617.0, 618.0, 616.0, 617.0, 620.0, 618.0, 617.0, 615.0, 617.0, 617.0, 617.0, 618.0, 616.0, 616.0, 618.0, 615.0, 618.0, 618.0, 618.0, 618.0, 616.0, 616.0, 620.0, 618.0, 619.0, 616.0, 617.0, 618.0, 620.0, 619.0, 617.0, 616.0, 618.0, 616.0, 620.0, 618.0, 618.0, 618.0, 617.0, 618.0, 620.0, 620.0, 620.0, 619.0, 619.0, 619.0, 618.0, 620.0, 621.0, 619.0, 619.0, 619.0, 617.0, 619.0, 617.0, 622.0, 619.0, 618.0, 619.0, 616.0, 619.0, 620.0, 619.0, 619.0, 618.0, 618.0, 619.0, 618.0, 618.0, 620.0, 621.0, 620.0, 618.0, 619.0, 619.0, 619.0, 620.0, 622.0, 620.0, 620.0, 619.0, 620.0, 621.0, 619.0, 619.0, 621.0, 620.0, 621.0, 619.0, 619.0, 621.0, 618.0, 623.0, 621.0, 620.0, 619.0, 617.0, 621.0, 619.0, 620.0, 620.0, 618.0, 621.0, 621.0, 621.0, 621.0, 620.0, 620.0, 621.0, 623.0, 623.0, 621.0, 621.0, 622.0, 620.0, 620.0, 623.0, 620.0, 619.0, 618.0, 620.0, 624.0, 621.0, 621.0, 620.0, 621.0, 622.0, 624.0, 622.0, 620.0, 620.0, 620.0, 624.0, 623.0, 621.0, 622.0, 625.0, 623.0, 623.0, 622.0, 621.0, 620.0, 623.0, 620.0, 624.0, 623.0, 622.0, 621.0, 621.0, 622.0, 620.0, 619.0, 621.0, 622.0, 621.0, 621.0, 621.0, 621.0, 623.0, 624.0, 625.0, 623.0, 621.0, 623.0, 624.0, 623.0, 625.0, 623.0, 622.0, 622.0, 620.0, 624.0, 622.0, 621.0, 621.0, 621.0, 626.0, 623.0, 622.0, 623.0, 621.0, 626.0, 622.0, 625.0, 625.0, 624.0, 621.0, 620.0, 621.0, 622.0, 624.0, 624.0, 624.0, 626.0, 624.0, 625.0, 627.0, 625.0, 624.0, 623.0, 623.0, 620.0, 624.0, 623.0, 622.0, 623.0, 621.0, 624.0, 623.0, 624.0, 623.0, 621.0, 620.0, 621.0, 624.0, 624.0, 624.0, 624.0, 624.0, 624.0, 625.0, 624.0, 625.0, 626.0, 622.0, 622.0, 622.0, 626.0, 621.0, 622.0, 622.0, 623.0, 626.0, 623.0, 623.0, 625.0, 624.0, 624.0, 623.0, 626.0, 624.0, 628.0, 625.0, 625.0, 624.0, 623.0],
      "WindowWidth": [1311.0, 1300.0, 1294.0, 1302.0, 1296.0, 1294.0, 1295.0, 1303.0, 1299.0, 1294.0, 1296.0, 1299.0, 1303.0, 1299.0, 1295.0, 1296.0, 1296.0, 1294.0, 1296.0, 1299.0, 1298.0, 1298.0, 1296.0, 1295.0, 1297.0, 1296.0, 1301.0, 1299.0, 1297.0, 1298.0, 1295.0, 1297.0, 1298.0, 1293.0, 1296.0, 1295.0, 1296.0, 1298.0, 1301.0, 1294.0, 1294.0, 1296.0, 1297.0, 1298.0, 1297.0, 1295.0, 1299.0, 1295.0, 1297.0, 1304.0, 1300.0, 1299.0, 1301.0, 1300.0, 1301.0, 1302.0, 1299.0, 1300.0, 1306.0, 1301.0, 1300.0, 1297.0, 1299.0, 1299.0, 1301.0, 1302.0, 1299.0, 1298.0, 1301.0, 1297.0, 1303.0, 1303.0, 1303.0, 1301.0, 1297.0, 1298.0, 1306.0, 1303.0, 1304.0, 1299.0, 1301.0, 1302.0, 1306.0, 1304.0, 1300.0, 1297.0, 1301.0, 1297.0, 1305.0, 1302.0, 1303.0, 1303.0, 1300.0, 1303.0, 1306.0, 1306.0, 1307.0, 1304.0, 1304.0, 1304.0, 1303.0, 1306.0, 1308.0, 1304.0, 1305.0, 1304.0, 1302.0, 1304.0, 1302.0, 1311.0, 1304.0, 1303.0, 1304.0, 1299.0, 1305.0, 1307.0, 1304.0, 1305.0, 1303.0, 1302.0, 1304.0, 1302.0, 1304.0, 1307.0, 1309.0, 1307.0, 1304.0, 1305.0, 1305.0, 1304.0, 1307.0, 1311.0, 1307.0, 1307.0, 1304.0, 1307.0, 1308.0, 1304.0, 1304.0, 1309.0, 1308.0, 1308.0, 1305.0, 1304.0, 1308.0, 1303.0, 1314.0, 1308.0, 1306.0, 1305.0, 1302.0, 1309.0, 1305.0, 1306.0, 1307.0, 1302.0, 1309.0, 1310.0, 1309.0, 1310.0, 1308.0, 1308.0, 1309.0, 1313.0, 1313.0, 1309.0, 1310.0, 1312.0, 1307.0, 1308.0, 1312.0, 1308.0, 1304.0, 1302.0, 1307.0, 1315.0, 1310.0, 1309.0, 1307.0, 1310.0, 1311.0, 1315.0, 1311.0, 1308.0, 1307.0, 1308.0, 1316.0, 1313.0, 1309.0, 1311.0, 1318.0, 1314.0, 1313.0, 1311.0, 1309.0, 1308.0, 1313.0, 1308.0, 1317.0, 1313.0, 1312.0, 1310.0, 1309.0, 1311.0, 1307.0, 1305.0, 1310.0, 1311.0, 1309.0, 1310.0, 1309.0, 1310.0, 1313.0, 1315.0, 1317.0, 1313.0, 1310.0, 1313.0, 1317.0, 1313.0, 1318.0, 1313.0, 1310.0, 1311.0, 1307.0, 1317.0, 1312.0, 1310.0, 1310.0, 1310.0, 1320.0, 1315.0, 1312.0, 1313.0, 1310.0, 1320.0, 1311.0, 1318.0, 1318.0, 1315.0, 1308.0, 1308.0, 1309.0, 1312.0, 1317.0, 1315.0, 1315.0, 1320.0, 1316.0, 1317.0, 1322.0, 1318.0, 1317.0, 1313.0, 1314.0, 1308.0, 1315.0, 1313.0, 1312.0, 1313.0, 1310.0, 1317.0, 1313.0, 1316.0, 1313.0, 1310.0, 1308.0, 1311.0, 1315.0, 1316.0, 1317.0, 1316.0, 1316.0, 1317.0, 1318.0, 1317.0, 1319.0, 1320.0, 1313.0, 1311.0, 1312.0, 1320.0, 1310.0, 1311.0, 1312.0, 1314.0, 1320.0, 1314.0, 1314.0, 1318.0, 1316.0, 1315.0, 1314.0, 1320.0, 1316.0, 1326.0, 1319.0, 1317.0, 1316.0, 1314.0]
    },
    "slices": {}
  }
}