{
  "AcquisitionMatrixPE": 74,
  "AcquisitionNumber": 1,
  "AcquisitionTime": "15:28:3.800000",
  "BandwidthPerPixelPhaseEncode": 27.579,
  "BaseResolution": 74,
  "BodyPartExamined": "HEAD",
  "CoilString": "t:HEA;HEP",
  "ConversionSoftware": "dcm2niix",
  "ConversionSoftwareVersion": "v1.0.20190410  GCC6.3.0",
  "DerivedVendorReportedEchoSpacing": 0.000489993,
  "DeviceSerialNumber": "35256",
  "DwellTime": 2.4e-06,
  "EchoTime": 0.03,
  "EffectiveEchoSpacing": 0.000489993,
  "FlipAngle": 70,
  "ImageOrientationPatientDICOM": [1, 0, 0, 0, 1, 0],
  "ImageType": [
    "ORIGINAL",
    "PRIMARY",
    "M",
    "ND",
    "NORM",
    "MOSAIC"
],
  "ImagingFrequency": 123.223,
  "InPlanePhaseEncodingDirectionDICOM": "COL",
  "InstitutionAddress": "East_Lee_St._2907_Greensboro_NC_US_27401",
  "InstitutionName": "JSNN",
  "InstitutionalDepartmentName": "Department",
  "MRAcquisitionType": "2D",
  "MagneticFieldStrength": 3,
  "Manufacturer": "Siemens",
  "ManufacturersModelName": "TrioTim",
  "Modality": "MR",
  "PartialFourier": 1,
  "PatientPosition": "HFS",
  "PercentPhaseFOV": 100,
  "PhaseEncodingDirection": "j-",
  "PhaseEncodingSteps": 74,
  "PhaseResolution": 1,
  "PixelBandwidth": 2815,
  "ProcedureStepDescription": "head_Cassidy",
  "ProtocolName": "RestingState",
  "PulseSequenceDetails": "%SiemensSeq%_ep2d_bold",
  "ReceiveCoilName": "HeadMatrix",
  "ReconMatrixPE": 74,
  "RepetitionTime": 2,
  "SAR": 0.111322,
  "ScanOptions": "FS",
  "ScanningSequence": "EP",
  "SequenceName": "_epfid2d1_74",
  "SequenceVariant": "SK",
  "SeriesDescription": "RestingState",
  "SeriesNumber": 3,
  "ShimSetting": [1388, 10527, -8682, 612, 123, -156, 15, -54],
  "SliceThickness": 4,
  "SliceTiming": [1.945, 1.8825, 1.82, 1.7575, 1.695, 1.6325, 1.57, 1.505, 1.4425, 1.38, 1.3175, 1.255, 1.1925, 1.13, 1.0675, 1.005, 0.9425, 0.88, 0.815, 0.7525, 0.69, 0.6275, 0.565, 0.5025, 0.44, 0.3775, 0.315, 0.2525, 0.19, 0.125, 0.0625, 0],
  "SoftwareVersions": "syngo_MR_B19",
  "SpacingBetweenSlices": 4,
  "StationName": "JSNNMRI",
  "TaskName": "rest",
  "TotalReadoutTime": 0.0357695,
  "TxRefAmp": 328.36,
  "dcmmeta_affine": [
    [-2.972972869873047, 0.0, 0.0, 105.18071746826172],
    [0.0, 2.972972869873047, 0.0, -85.23906707763672],
    [0.0, 0.0, 3.999999761581421, -51.46023941040039],
    [0.0, 0.0, 0.0, 1.0]
],
  "dcmmeta_reorient_transform": [
    [0.0, -1.0, 0.0, 73.0],
    [1.0, 0.0, 0.0, 0.0],
    [0.0, 0.0, 1.0, 0.0],
    [0.0, 0.0, 0.0, 1.0]
],
  "dcmmeta_shape": [74, 74, 32, 300],
  "dcmmeta_slice_dim": 2,
  "dcmmeta_version": 0.6,
  "global": {
    "const": {
      "AcquisitionMatrix": [74, 0, 0, 74],
      "AngioFlag": "N",
      "BitsAllocated": 16,
      "BitsStored": 12,
      "BodyPartExamined": "HEAD",
      "Columns": 444,
      "EchoNumbers": 1,
      "EchoTime": 30.0,
      "EchoTrainLength": 1,
      "FlipAngle": 70.0,
      "HighBit": 11,
      "ImageOrientationPatient": [1.0, 0.0, 0.0, 0.0, 1.0, 0.0],
      "ImagePositionPatient": [-655.18069982529, -681.78792953491, -51.4602394104],
      "ImageType": [
        "ORIGINAL",
        "PRIMARY",
        "M",
        "ND",
        "NORM",
        "MOSAIC"
],
      "ImagedNucleus": "1H",
      "ImagingFrequency": 123.222655,
      "InPlanePhaseEncodingDirection": "COL",
      "MRAcquisitionType": "2D",
      "MagneticFieldStrength": 3.0,
      "Manufacturer": "SIEMENS",
      "ManufacturerModelName": "TrioTim",
      "Modality": "MR",
      "NumberOfAverages": 1.0,
      "NumberOfPhaseEncodingSteps": 74,
      "PercentPhaseFieldOfView": 100.0,
      "PercentSampling": 100.0,
      "PerformedProcedureStepStartTime": "144416.963000",
      "PhotometricInterpretation": "MONOCHROME2",
      "PixelBandwidth": 2815.0,
      "PixelRepresentation": 0,
      "PixelSpacing": [2.972972869873, 2.972972869873],
      "ProtocolName": "RestingState",
      "RepetitionTime": 2000.0,
      "Rows": 444,
      "SAR": 0.11132240701969,
      "SamplesPerPixel": 1,
      "ScanOptions": "FS",
      "ScanningSequence": "EP",
      "SequenceName": "*epfid2d1_74",
      "SequenceVariant": "SK",
      "SeriesDescription": "RestingState",
      "SeriesNumber": 3,
      "SeriesTime": "152844.512000",
      "SliceLocation": -51.4602394104,
      "SliceThickness": 4.0,
      "SmallestImagePixelValue": 0,
      "SoftwareVersions": "syngo MR B19",
      "SpacingBetweenSlices": 3.9999998769452,
      "SpecificCharacterSet": "ISO_IR 100",
      "StudyID": "1",
      "StudyTime": "144416.893000",
      "TransmitCoilName": "Body",
      "VariableFlipAngleFlag": "N",
      "WindowCenterWidthExplanation": "Algo1",
      "dBdt": 0.0},
    "slices": {}
  },
  "time": {
    "samples": {
      "AcquisitionNumber": [1, 2, 3, 4, 5, 6, 7, 8, 9, 10, 11, 12, 13, 14, 15, 16, 17, 18, 19, 20, 21, 22, 23, 24, 25, 26, 27, 28, 29, 30, 31, 32, 33, 34, 35, 36, 37, 38, 39, 40, 41, 42, 43, 44, 45, 46, 47, 48, 49, 50, 51, 52, 53, 54, 55, 56, 57, 58, 59, 60, 61, 62, 63, 64, 65, 66, 67, 68, 69, 70, 71, 72, 73, 74, 75, 76, 77, 78, 79, 80, 81, 82, 83, 84, 85, 86, 87, 88, 89, 90, 91, 92, 93, 94, 95, 96, 97, 98, 99, 100, 101, 102, 103, 104, 105, 106, 107, 108, 109, 110, 111, 112, 113, 114, 115, 116, 117, 118, 119, 120, 121, 122, 123, 124, 125, 126, 127, 128, 129, 130, 131, 132, 133, 134, 135, 136, 137, 138, 139, 140, 141, 142, 143, 144, 145, 146, 147, 148, 149, 150, 151, 152, 153, 154, 155, 156, 157, 158, 159, 160, 161, 162, 163, 164, 165, 166, 167, 168, 169, 170, 171, 172, 173, 174, 175, 176, 177, 178, 179, 180, 181, 182, 183, 184, 185, 186, 187, 188, 189, 190, 191, 192, 193, 194, 195, 196, 197, 198, 199, 200, 201, 202, 203, 204, 205, 206, 207, 208, 209, 210, 211, 212, 213, 214, 215, 216, 217, 218, 219, 220, 221, 222, 223, 224, 225, 226, 227, 228, 229, 230, 231, 232, 233, 234, 235, 236, 237, 238, 239, 240, 241, 242, 243, 244, 245, 246, 247, 248, 249, 250, 251, 252, 253, 254, 255, 256, 257, 258, 259, 260, 261, 262, 263, 264, 265, 266, 267, 268, 269, 270, 271, 272, 273, 274, 275, 276, 277, 278, 279, 280, 281, 282, 283, 284, 285, 286, 287, 288, 289, 290, 291, 292, 293, 294, 295, 296, 297, 298, 299, 300],
      "AcquisitionTime": ["152803.800000", "152805.807500", "152807.817500", "152809.825000", "152811.832500", "152813.840000", "152815.847500", "152817.857500", "152819.865000", "152821.872500", "152823.880000", "152825.887500", "152827.897500", "152829.905000", "152831.912500", "152833.920000", "152835.930000", "152837.937500", "152839.945000", "152841.952500", "152843.960000", "152845.970000", "152847.977500", "152849.985000", "152851.992500", "152854.000000", "152856.010000", "152858.017500", "152900.025000", "152902.032500", "152904.042500", "152906.050000", "152908.057500", "152910.065000", "152912.072500", "152914.082500", "152916.090000", "152918.097500", "152920.105000", "152922.112500", "152924.122500", "152926.130000", "152928.137500", "152930.145000", "152932.152500", "152934.162500", "152936.170000", "152938.177500", "152940.185000", "152942.195000", "152944.202500", "152946.210000", "152948.217500", "152950.225000", "152952.235000", "152954.242500", "152956.250000", "152958.257500", "153000.265000", "153002.275000", "153004.282500", "153006.290000", "153008.297500", "153010.307500", "153012.315000", "153014.322500", "153016.330000", "153018.337500", "153020.347500", "153022.355000", "153024.362500", "153026.370000", "153028.377500", "153030.387500", "153032.395000", "153034.402500", "153036.410000", "153038.420000", "153040.427500", "153042.435000", "153044.442500", "153046.450000", "153048.460000", "153050.467500", "153052.475000", "153054.482500", "153056.490000", "153058.500000", "153100.507500", "153102.515000", "153104.522500", "153106.530000", "153108.540000", "153110.547500", "153112.555000", "153114.562500", "153116.572500", "153118.580000", "153120.587500", "153122.595000", "153124.602500", "153126.612500", "153128.620000", "153130.627500", "153132.635000", "153134.642500", "153136.652500", "153138.660000", "153140.667500", "153142.675000", "153144.685000", "153146.692500", "153148.700000", "153150.707500", "153152.715000", "153154.725000", "153156.732500", "153158.740000", "153200.747500", "153202.755000", "153204.765000", "153206.772500", "153208.780000", "153210.787500", "153212.797500", "153214.805000", "153216.812500", "153218.820000", "153220.827500", "153222.837500", "153224.845000", "153226.852500", "153228.860000", "153230.867500", "153232.877500", "153234.885000", "153236.892500", "153238.900000", "153240.910000", "153242.917500", "153244.925000", "153246.932500", "153248.940000", "153250.950000", "153252.957500", "153254.965000", "153256.972500", "153258.980000", "153300.990000", "153302.997500", "153305.005000", "153307.012500", "153309.020000", "153311.030000", "153313.037500", "153315.045000", "153317.052500", "153319.062500", "153321.070000", "153323.077500", "153325.085000", "153327.092500", "153329.102500", "153331.110000", "153333.117500", "153335.125000", "153337.132500", "153339.142500", "153341.150000", "153343.157500", "153345.165000", "153347.175000", "153349.182500", "153351.190000", "153353.197500", "153355.205000", "153357.215000", "153359.222500", "153401.230000", "153403.237500", "153405.245000", "153407.255000", "153409.262500", "153411.270000", "153413.277500", "153415.287500", "153417.295000", "153419.302500", "153421.310000", "153423.317500", "153425.327500", "153427.335000", "153429.342500", "153431.350000", "153433.357500", "153435.367500", "153437.375000", "153439.382500", "153441.390000", "153443.397500", "153445.407500", "153447.415000", "153449.422500", "153451.430000", "153453.440000", "153455.447500", "153457.455000", "153459.462500", "153501.470000", "153503.480000", "153505.487500", "153507.495000", "153509.502500", "153511.510000", "153513.520000", "153515.527500", "153517.535000", "153519.542500", "153521.552500", "153523.560000", "153525.567500", "153527.575000", "153529.582500", "153531.592500", "153533.600000", "153535.607500", "153537.615000", "153539.622500", "153541.632500", "153543.640000", "153545.647500", "153547.655000", "153549.665000", "153551.672500", "153553.680000", "153555.687500", "153557.695000", "153559.705000", "153601.712500", "153603.720000", "153605.727500", "153607.735000", "153609.745000", "153611.752500", "153613.760000", "153615.767500", "153617.775000", "153619.785000", "153621.792500", "153623.800000", "153625.807500", "153627.817500", "153629.825000", "153631.832500", "153633.840000", "153635.847500", "153637.857500", "153639.865000", "153641.872500", "153643.880000", "153645.887500", "153647.897500", "153649.905000", "153651.912500", "153653.920000", "153655.930000", "153657.937500", "153659.945000", "153701.952500", "153703.960000", "153705.970000", "153707.977500", "153709.985000", "153711.992500", "153714.000000", "153716.010000", "153718.017500", "153720.025000", "153722.032500", "153724.042500", "153726.050000", "153728.057500", "153730.065000", "153732.072500", "153734.082500", "153736.090000", "153738.097500", "153740.105000", "153742.112500", "153744.122500", "153746.130000", "153748.137500", "153750.145000", "153752.152500", "153754.162500", "153756.170000", "153758.177500", "153800.185000", "153802.195000", "153804.202500"],
      "ContentTime": ["152844.515000", "152844.517000", "152844.530000", "152844.532000", "152844.535000", "152844.535000", "152844.537000", "152844.540000", "152844.542000", "152844.542000", "152844.545000", "152844.547000", "152844.550000", "152844.550000", "152844.560000", "152844.565000", "152844.565000", "152844.567000", "152844.570000", "152844.572000", "152924.510000", "152924.513000", "152924.515000", "152924.518000", "152924.520000", "152924.520000", "152924.523000", "152924.525000", "152924.528000", "152924.528000", "152924.530000", "152924.533000", "152924.535000", "152924.535000", "152924.538000", "152924.540000", "152924.543000", "152924.543000", "152924.545000", "152924.548000", "153004.511000", "153004.513000", "153004.516000", "153004.518000", "153004.521000", "153004.521000", "153004.523000", "153004.526000", "153004.528000", "153004.528000", "153004.531000", "153004.533000", "153004.536000", "153004.536000", "153004.538000", "153004.541000", "153004.543000", "153004.543000", "153004.546000", "153004.548000", "153044.512000", "153044.514000", "153044.517000", "153044.519000", "153044.522000", "153044.522000", "153044.524000", "153044.527000", "153044.529000", "153044.542000", "153044.542000", "153044.544000", "153044.547000", "153044.549000", "153044.549000", "153044.552000", "153044.554000", "153044.557000", "153044.557000", "153044.559000", "153124.510000", "153124.512000", "153124.515000", "153124.517000", "153124.520000", "153124.520000", "153124.522000", "153124.532000", "153124.535000", "153124.537000", "153124.540000", "153124.540000", "153124.542000", "153124.545000", "153124.547000", "153124.547000", "153124.550000", "153124.552000", "153124.555000", "153124.557000", "153144.510000", "153144.513000", "153144.515000", "153144.518000", "153144.520000", "153144.520000", "153144.523000", "153144.525000", "153144.528000", "153144.528000", "153224.511000", "153224.513000", "153224.516000", "153224.518000", "153224.518000", "153224.521000", "153224.523000", "153224.526000", "153224.526000", "153224.528000", "153224.531000", "153224.533000", "153224.533000", "153224.536000", "153224.538000", "153224.541000", "153224.543000", "153224.543000", "153224.546000", "153224.548000", "153304.511000", "153304.514000", "153304.516000", "153304.519000", "153304.521000", "153304.521000", "153304.524000", "153304.526000", "153304.529000", "153304.529000", "153304.531000", "153304.534000", "153304.536000", "153304.536000", "153304.539000", "153304.541000", "153304.544000", "153304.544000", "153304.546000", "153304.549000", "153344.509000", "153344.512000", "153344.514000", "153344.517000", "153344.519000", "153344.519000", "153344.522000", "153344.524000", "153344.527000", "153344.527000", "153344.529000", "153344.532000", "153344.534000", "153344.534000", "153344.537000", "153344.539000", "153344.542000", "153344.542000", "153344.544000", "153344.547000", "153424.510000", "153424.512000", "153424.515000", "153424.517000", "153424.517000", "153424.520000", "153424.522000", "153424.525000", "153424.527000", "153424.527000", "153424.530000", "153424.532000", "153424.535000", "153424.535000", "153424.537000", "153424.540000", "153424.542000", "153424.542000", "153424.545000", "153424.547000", "153504.511000", "153504.513000", "153504.516000", "153504.518000", "153504.521000", "153504.521000", "153504.523000", "153504.526000", "153504.528000", "153504.528000", "153504.531000", "153504.533000", "153504.536000", "153504.536000", "153504.538000", "153504.541000", "153504.543000", "153504.543000", "153504.546000", "153504.548000", "153544.511000", "153544.514000", "153544.516000", "153544.519000", "153544.521000", "153544.521000", "153544.524000", "153544.526000", "153544.529000", "153544.529000", "153544.531000", "153544.534000", "153544.536000", "153544.536000", "153544.539000", "153544.541000", "153544.544000", "153544.546000", "153544.546000", "153544.549000", "153624.509000", "153624.512000", "153624.514000", "153624.517000", "153624.519000", "153624.519000", "153624.522000", "153624.524000", "153624.527000", "153624.527000", "153624.529000", "153624.532000", "153624.534000", "153624.534000", "153624.537000", "153624.539000", "153624.542000", "153624.542000", "153624.544000", "153624.547000", "153704.512000", "153704.512000", "153704.515000", "153704.517000", "153704.520000", "153704.520000", "153704.522000", "153704.525000", "153704.527000", "153704.527000", "153704.530000", "153704.532000", "153704.535000", "153704.537000", "153704.537000", "153704.540000", "153704.542000", "153704.545000", "153704.545000", "153704.547000", "153744.511000", "153744.513000", "153744.516000", "153744.518000", "153744.518000", "153744.521000", "153744.523000", "153744.526000", "153744.528000", "153744.528000", "153744.531000", "153744.533000", "153744.536000", "153744.536000", "153744.538000", "153744.541000", "153744.543000", "153744.543000", "153744.546000", "153744.548000", "153803.033000", "153803.036000", "153803.038000", "153803.038000", "153803.041000", "153803.043000", "153803.046000", "153803.046000", "153803.048000", "153803.051000"],
      "InstanceCreationTime": ["152844.515000", "152844.517000", "152844.530000", "152844.532000", "152844.535000", "152844.535000", "152844.537000", "152844.540000", "152844.542000", "152844.542000", "152844.545000", "152844.547000", "152844.550000", "152844.550000", "152844.560000", "152844.565000", "152844.565000", "152844.567000", "152844.570000", "152844.572000", "152924.510000", "152924.513000", "152924.515000", "152924.518000", "152924.520000", "152924.520000", "152924.523000", "152924.525000", "152924.528000", "152924.528000", "152924.530000", "152924.533000", "152924.535000", "152924.535000", "152924.538000", "152924.540000", "152924.543000", "152924.543000", "152924.545000", "152924.548000", "153004.511000", "153004.513000", "153004.516000", "153004.518000", "153004.521000", "153004.521000", "153004.523000", "153004.526000", "153004.528000", "153004.528000", "153004.531000", "153004.533000", "153004.536000", "153004.536000", "153004.538000", "153004.541000", "153004.543000", "153004.543000", "153004.546000", "153004.548000", "153044.512000", "153044.514000", "153044.517000", "153044.519000", "153044.522000", "153044.522000", "153044.524000", "153044.527000", "153044.529000", "153044.542000", "153044.542000", "153044.544000", "153044.547000", "153044.549000", "153044.549000", "153044.552000", "153044.554000", "153044.557000", "153044.557000", "153044.559000", "153124.510000", "153124.512000", "153124.515000", "153124.517000", "153124.520000", "153124.520000", "153124.522000", "153124.532000", "153124.535000", "153124.537000", "153124.540000", "153124.540000", "153124.542000", "153124.545000", "153124.547000", "153124.547000", "153124.550000", "153124.552000", "153124.555000", "153124.557000", "153144.510000", "153144.513000", "153144.515000", "153144.518000", "153144.520000", "153144.520000", "153144.523000", "153144.525000", "153144.528000", "153144.528000", "153224.511000", "153224.513000", "153224.516000", "153224.518000", "153224.518000", "153224.521000", "153224.523000", "153224.526000", "153224.526000", "153224.528000", "153224.531000", "153224.533000", "153224.533000", "153224.536000", "153224.538000", "153224.541000", "153224.543000", "153224.543000", "153224.546000", "153224.548000", "153304.511000", "153304.514000", "153304.516000", "153304.519000", "153304.521000", "153304.521000", "153304.524000", "153304.526000", "153304.529000", "153304.529000", "153304.531000", "153304.534000", "153304.536000", "153304.536000", "153304.539000", "153304.541000", "153304.544000", "153304.544000", "153304.546000", "153304.549000", "153344.509000", "153344.512000", "153344.514000", "153344.517000", "153344.519000", "153344.519000", "153344.522000", "153344.524000", "153344.527000", "153344.527000", "153344.529000", "153344.532000", "153344.534000", "153344.534000", "153344.537000", "153344.539000", "153344.542000", "153344.542000", "153344.544000", "153344.547000", "153424.510000", "153424.512000", "153424.515000", "153424.517000", "153424.517000", "153424.520000", "153424.522000", "153424.525000", "153424.527000", "153424.527000", "153424.530000", "153424.532000", "153424.535000", "153424.535000", "153424.537000", "153424.540000", "153424.542000", "153424.542000", "153424.545000", "153424.547000", "153504.511000", "153504.513000", "153504.516000", "153504.518000", "153504.521000", "153504.521000", "153504.523000", "153504.526000", "153504.528000", "153504.528000", "153504.531000", "153504.533000", "153504.536000", "153504.536000", "153504.538000", "153504.541000", "153504.543000", "153504.543000", "153504.546000", "153504.548000", "153544.511000", "153544.514000", "153544.516000", "153544.519000", "153544.521000", "153544.521000", "153544.524000", "153544.526000", "153544.529000", "153544.529000", "153544.531000", "153544.534000", "153544.536000", "153544.536000", "153544.539000", "153544.541000", "153544.544000", "153544.546000", "153544.546000", "153544.549000", "153624.509000", "153624.512000", "153624.514000", "153624.517000", "153624.519000", "153624.519000", "153624.522000", "153624.524000", "153624.527000", "153624.527000", "153624.529000", "153624.532000", "153624.534000", "153624.534000", "153624.537000", "153624.539000", "153624.542000", "153624.542000", "153624.544000", "153624.547000", "153704.512000", "153704.512000", "153704.515000", "153704.517000", "153704.520000", "153704.520000", "153704.522000", "153704.525000", "153704.527000", "153704.527000", "153704.530000", "153704.532000", "153704.535000", "153704.537000", "153704.537000", "153704.540000", "153704.542000", "153704.545000", "153704.545000", "153704.547000", "153744.511000", "153744.513000", "153744.516000", "153744.518000", "153744.518000", "153744.521000", "153744.523000", "153744.526000", "153744.528000", "153744.528000", "153744.531000", "153744.533000", "153744.536000", "153744.536000", "153744.538000", "153744.541000", "153744.543000", "153744.543000", "153744.546000", "153744.548000", "153803.033000", "153803.036000", "153803.038000", "153803.038000", "153803.041000", "153803.043000", "153803.046000", "153803.046000", "153803.048000", "153803.051000"],
      "InstanceNumber": [1, 2, 3, 4, 5, 6, 7, 8, 9, 10, 11, 12, 13, 14, 15, 16, 17, 18, 19, 20, 21, 22, 23, 24, 25, 26, 27, 28, 29, 30, 31, 32, 33, 34, 35, 36, 37, 38, 39, 40, 41, 42, 43, 44, 45, 46, 47, 48, 49, 50, 51, 52, 53, 54, 55, 56, 57, 58, 59, 60, 61, 62, 63, 64, 65, 66, 67, 68, 69, 70, 71, 72, 73, 74, 75, 76, 77, 78, 79, 80, 81, 82, 83, 84, 85, 86, 87, 88, 89, 90, 91, 92, 93, 94, 95, 96, 97, 98, 99, 100, 101, 102, 103, 104, 105, 106, 107, 108, 109, 110, 111, 112, 113, 114, 115, 116, 117, 118, 119, 120, 121, 122, 123, 124, 125, 126, 127, 128, 129, 130, 131, 132, 133, 134, 135, 136, 137, 138, 139, 140, 141, 142, 143, 144, 145, 146, 147, 148, 149, 150, 151, 152, 153, 154, 155, 156, 157, 158, 159, 160, 161, 162, 163, 164, 165, 166, 167, 168, 169, 170, 171, 172, 173, 174, 175, 176, 177, 178, 179, 180, 181, 182, 183, 184, 185, 186, 187, 188, 189, 190, 191, 192, 193, 194, 195, 196, 197, 198, 199, 200, 201, 202, 203, 204, 205, 206, 207, 208, 209, 210, 211, 212, 213, 214, 215, 216, 217, 218, 219, 220, 221, 222, 223, 224, 225, 226, 227, 228, 229, 230, 231, 232, 233, 234, 235, 236, 237, 238, 239, 240, 241, 242, 243, 244, 245, 246, 247, 248, 249, 250, 251, 252, 253, 254, 255, 256, 257, 258, 259, 260, 261, 262, 263, 264, 265, 266, 267, 268, 269, 270, 271, 272, 273, 274, 275, 276, 277, 278, 279, 280, 281, 282, 283, 284, 285, 286, 287, 288, 289, 290, 291, 292, 293, 294, 295, 296, 297, 298, 299, 300],
      "LargestImagePixelValue": [1549, 1482, 1767, 1694, 1461, 1844, 1451, 1652, 1474, 1505, 1504, 1585, 1485, 1546, 1483, 1529, 1538, 1489, 1567, 1599, 1696, 1527, 1616, 1540, 1502, 1528, 1583, 1459, 1569, 1554, 1720, 1484, 1512, 1541, 1603, 1507, 1471, 1494, 1538, 1588, 1538, 1564, 1581, 1571, 1483, 1491, 1579, 1610, 1473, 1561, 1510, 1735, 1914, 1941, 1842, 1899, 1589, 1891, 1654, 1478, 1528, 1543, 1521, 1547, 1554, 1499, 1513, 1569, 1480, 1582, 1507, 1611, 1656, 1566, 1563, 1543, 1548, 1601, 1440, 1572, 1577, 1717, 1774, 1759, 1511, 1610, 1653, 1706, 1544, 1689, 1512, 1616, 1637, 1626, 1486, 1581, 1611, 1567, 1489, 1527, 1621, 1619, 1489, 1574, 1571, 1540, 1573, 1608, 1485, 1599, 1506, 1775, 1866, 2047, 1951, 1859, 1575, 1593, 1621, 1551, 1668, 1655, 1685, 1637, 1710, 1478, 1611, 1615, 1576, 1549, 1591, 1595, 1577, 1570, 1580, 1655, 1635, 1525, 1586, 1621, 1575, 1530, 1597, 1559, 1609, 1880, 1970, 2066, 1908, 1867, 1860, 1633, 1575, 1607, 1566, 1580, 1604, 1564, 1592, 1634, 1492, 1587, 1591, 1595, 1620, 1455, 1608, 1650, 1573, 1754, 1600, 1828, 1841, 1766, 1857, 1648, 1566, 1607, 1648, 1616, 1666, 1551, 1610, 1787, 1678, 1586, 1596, 1538, 1648, 1568, 1717, 1704, 1860, 1517, 1577, 1662, 1632, 1545, 1567, 1641, 1504, 1568, 1598, 1789, 1519, 1612, 1587, 1634, 1530, 1559, 1562, 1613, 1562, 1588, 1541, 1673, 1713, 1574, 1698, 1598, 1588, 1609, 1539, 1648, 1613, 1838, 1785, 1783, 1598, 1590, 1642, 1575, 1619, 1621, 1737, 1595, 1600, 1661, 1567, 1750, 1607, 1600, 1671, 1681, 1821, 1555, 1593, 1634, 1521, 1685, 1644, 1597, 1693, 1596, 1714, 1569, 1563, 1563, 1646, 1559, 1597, 1624, 2003, 1748, 1891, 1652, 1820, 1623, 1597, 1624, 1581, 1602, 1622, 1595, 1619, 1609, 1816, 1767, 1571, 1617, 1643, 1637, 1621, 1566, 1544, 1622, 1657, 1572, 1557, 1636, 1626, 1623, 1804, 1853, 1725, 1792, 1650, 1645, 1585, 1837],
      "WindowCenter": [620.0, 616.0, 615.0, 615.0, 612.0, 614.0, 612.0, 615.0, 612.0, 613.0, 612.0, 612.0, 612.0, 614.0, 613.0, 615.0, 614.0, 615.0, 616.0, 615.0, 615.0, 614.0, 616.0, 615.0, 615.0, 615.0, 615.0, 615.0, 617.0, 616.0, 617.0, 614.0, 614.0, 614.0, 617.0, 615.0, 614.0, 615.0, 616.0, 617.0, 617.0, 618.0, 618.0, 618.0, 617.0, 617.0, 618.0, 617.0, 616.0, 620.0, 621.0, 621.0, 620.0, 619.0, 616.0, 617.0, 613.0, 615.0, 612.0, 611.0, 611.0, 612.0, 613.0, 613.0, 614.0, 613.0, 614.0, 615.0, 616.0, 618.0, 617.0, 617.0, 617.0, 616.0, 617.0, 616.0, 615.0, 615.0, 615.0, 619.0, 620.0, 620.0, 618.0, 617.0, 616.0, 618.0, 618.0, 618.0, 615.0, 617.0, 616.0, 616.0, 615.0, 616.0, 616.0, 619.0, 618.0, 618.0, 618.0, 618.0, 619.0, 619.0, 618.0, 620.0, 620.0, 620.0, 620.0, 620.0, 619.0, 621.0, 621.0, 623.0, 622.0, 620.0, 618.0, 615.0, 613.0, 614.0, 615.0, 617.0, 619.0, 618.0, 618.0, 617.0, 617.0, 615.0, 617.0, 618.0, 617.0, 617.0, 617.0, 617.0, 619.0, 618.0, 618.0, 618.0, 619.0, 618.0, 619.0, 620.0, 620.0, 620.0, 620.0, 622.0, 624.0, 625.0, 624.0, 623.0, 619.0, 618.0, 616.0, 614.0, 614.0, 617.0, 617.0, 616.0, 617.0, 618.0, 618.0, 619.0, 617.0, 618.0, 618.0, 618.0, 618.0, 618.0, 622.0, 622.0, 621.0, 622.0, 620.0, 622.0, 621.0, 620.0, 620.0, 617.0, 616.0, 617.0, 618.0, 619.0, 621.0, 621.0, 621.0, 621.0, 619.0, 617.0, 618.0, 619.0, 622.0, 621.0, 622.0, 620.0, 621.0, 617.0, 618.0, 619.0, 620.0, 618.0, 618.0, 620.0, 621.0, 622.0, 620.0, 621.0, 620.0, 621.0, 619.0, 621.0, 620.0, 619.0, 619.0, 622.0, 622.0, 621.0, 619.0, 622.0, 622.0, 621.0, 622.0, 620.0, 620.0, 619.0, 622.0, 623.0, 622.0, 623.0, 621.0, 621.0, 618.0, 618.0, 620.0, 621.0, 622.0, 621.0, 621.0, 620.0, 621.0, 623.0, 621.0, 622.0, 619.0, 621.0, 623.0, 622.0, 621.0, 619.0, 620.0, 619.0, 621.0, 623.0, 623.0, 622.0, 622.0, 621.0, 623.0, 621.0, 621.0, 620.0, 622.0, 623.0, 624.0, 623.0, 625.0, 622.0, 623.0, 620.0, 621.0, 621.0, 620.0, 620.0, 622.0, 622.0, 621.0, 621.0, 623.0, 622.0, 624.0, 621.0, 620.0, 619.0, 621.0, 622.0, 622.0, 621.0, 622.0, 623.0, 624.0, 623.0, 622.0, 623.0, 625.0, 624.0, 624.0, 623.0, 622.0, 622.0, 622.0, 624.0, 622.0, 624.0],
      "WindowWidth": [1301.0, 1293.0, 1290.0, 1290.0, 1285.0, 1289.0, 1284.0, 1289.0, 1283.0, 1287.0, 1285.0, 1285.0, 1283.0, 1288.0, 1285.0, 1290.0, 1287.0, 1291.0, 1292.0, 1291.0, 1290.0, 1288.0, 1293.0, 1290.0, 1291.0, 1292.0, 1291.0, 1290.0, 1295.0, 1293.0, 1295.0, 1288.0, 1289.0, 1289.0, 1294.0, 1291.0, 1289.0, 1290.0, 1292.0, 1294.0, 1294.0, 1297.0, 1298.0, 1297.0, 1295.0, 1296.0, 1296.0, 1295.0, 1294.0, 1302.0, 1303.0, 1303.0, 1300.0, 1299.0, 1293.0, 1295.0, 1285.0, 1290.0, 1283.0, 1282.0, 1282.0, 1284.0, 1286.0, 1287.0, 1289.0, 1286.0, 1289.0, 1290.0, 1293.0, 1296.0, 1295.0, 1294.0, 1294.0, 1292.0, 1294.0, 1292.0, 1291.0, 1290.0, 1291.0, 1299.0, 1301.0, 1300.0, 1297.0, 1294.0, 1292.0, 1297.0, 1297.0, 1296.0, 1290.0, 1295.0, 1292.0, 1292.0, 1291.0, 1292.0, 1293.0, 1299.0, 1297.0, 1297.0, 1296.0, 1297.0, 1299.0, 1299.0, 1299.0, 1300.0, 1302.0, 1302.0, 1302.0, 1302.0, 1299.0, 1302.0, 1304.0, 1308.0, 1305.0, 1301.0, 1297.0, 1290.0, 1287.0, 1289.0, 1289.0, 1294.0, 1298.0, 1297.0, 1297.0, 1295.0, 1294.0, 1291.0, 1296.0, 1297.0, 1296.0, 1295.0, 1294.0, 1294.0, 1298.0, 1298.0, 1298.0, 1297.0, 1299.0, 1298.0, 1299.0, 1302.0, 1302.0, 1302.0, 1301.0, 1306.0, 1310.0, 1311.0, 1309.0, 1308.0, 1299.0, 1298.0, 1293.0, 1288.0, 1289.0, 1295.0, 1295.0, 1292.0, 1294.0, 1297.0, 1298.0, 1298.0, 1295.0, 1297.0, 1297.0, 1298.0, 1297.0, 1298.0, 1305.0, 1305.0, 1304.0, 1307.0, 1302.0, 1306.0, 1304.0, 1302.0, 1302.0, 1296.0, 1293.0, 1294.0, 1296.0, 1300.0, 1304.0, 1305.0, 1303.0, 1304.0, 1299.0, 1296.0, 1297.0, 1300.0, 1306.0, 1304.0, 1305.0, 1302.0, 1303.0, 1294.0, 1297.0, 1299.0, 1301.0, 1297.0, 1298.0, 1302.0, 1304.0, 1306.0, 1302.0, 1303.0, 1301.0, 1304.0, 1300.0, 1305.0, 1301.0, 1299.0, 1300.0, 1306.0, 1306.0, 1304.0, 1299.0, 1305.0, 1306.0, 1304.0, 1306.0, 1302.0, 1301.0, 1299.0, 1306.0, 1308.0, 1306.0, 1309.0, 1304.0, 1302.0, 1298.0, 1298.0, 1301.0, 1303.0, 1306.0, 1304.0, 1304.0, 1302.0, 1304.0, 1308.0, 1304.0, 1305.0, 1300.0, 1304.0, 1308.0, 1306.0, 1304.0, 1299.0, 1300.0, 1300.0, 1303.0, 1309.0, 1307.0, 1306.0, 1307.0, 1304.0, 1308.0, 1303.0, 1304.0, 1302.0, 1306.0, 1309.0, 1311.0, 1308.0, 1312.0, 1306.0, 1308.0, 1301.0, 1305.0, 1303.0, 1302.0, 1301.0, 1306.0, 1307.0, 1304.0, 1304.0, 1308.0, 1306.0, 1310.0, 1304.0, 1301.0, 1300.0, 1303.0, 1305.0, 1305.0, 1305.0, 1307.0, 1308.0, 1311.0, 1308.0, 1306.0, 1308.0, 1313.0, 1311.0, 1311.0, 1308.0, 1306.0, 1307.0, 1306.0, 1311.0, 1307.0, 1309.0]
    },
    "slices": {}
  }
}