{
  "AcquisitionMatrixPE": 74,
  "AcquisitionNumber": 1,
  "AcquisitionTime": "10:01:4.480000",
  "BandwidthPerPixelPhaseEncode": 27.579,
  "BaseResolution": 74,
  "BodyPartExamined": "HEAD",
  "CoilString": "t:HEA;HEP",
  "ConversionSoftware": "dcm2niix",
  "ConversionSoftwareVersion": "v1.0.20190410  GCC6.3.0",
  "DerivedVendorReportedEchoSpacing": 0.000489993,
  "DeviceSerialNumber": "35256",
  "DwellTime": 2.4e-06,
  "EchoTime": 0.03,
  "EffectiveEchoSpacing": 0.000489993,
  "FlipAngle": 70,
  "ImageOrientationPatientDICOM": [1, 0, 0, 0, 1, 0],
  "ImageType": [
    "ORIGINAL",
    "PRIMARY",
    "M",
    "ND",
    "NORM",
    "MOSAIC"
],
  "ImagingFrequency": 123.223,
  "InPlanePhaseEncodingDirectionDICOM": "COL",
  "InstitutionAddress": "East_Lee_St._2907_Greensboro_NC_US_27401",
  "InstitutionName": "JSNN",
  "InstitutionalDepartmentName": "Department",
  "MRAcquisitionType": "2D",
  "MagneticFieldStrength": 3,
  "Manufacturer": "Siemens",
  "ManufacturersModelName": "TrioTim",
  "Modality": "MR",
  "PartialFourier": 1,
  "PatientPosition": "HFS",
  "PercentPhaseFOV": 100,
  "PhaseEncodingDirection": "j-",
  "PhaseEncodingSteps": 74,
  "PhaseResolution": 1,
  "PixelBandwidth": 2815,
  "ProcedureStepDescription": "head_Cassidy",
  "ProtocolName": "RestingState",
  "PulseSequenceDetails": "%SiemensSeq%_ep2d_bold",
  "ReceiveCoilName": "HeadMatrix",
  "ReconMatrixPE": 74,
  "RepetitionTime": 2,
  "SAR": 0.130424,
  "ScanOptions": "FS",
  "ScanningSequence": "EP",
  "SequenceName": "_epfid2d1_74",
  "SequenceVariant": "SK",
  "SeriesDescription": "RestingState",
  "SeriesNumber": 3,
  "ShimSetting": [1411, 10609, -8825, 741, 135, -568, 123, -108],
  "SliceThickness": 4,
  "SliceTiming": [1.945, 1.8825, 1.82, 1.7575, 1.695, 1.6325, 1.5675, 1.505, 1.4425, 1.38, 1.3175, 1.255, 1.1925, 1.13, 1.0675, 1.005, 0.94, 0.8775, 0.815, 0.7525, 0.69, 0.6275, 0.565, 0.5025, 0.44, 0.3775, 0.315, 0.25, 0.1875, 0.125, 0.0625, 0],
  "SoftwareVersions": "syngo_MR_B19",
  "SpacingBetweenSlices": 4,
  "StationName": "JSNNMRI",
  "TaskName": "rest",
  "TotalReadoutTime": 0.0357695,
  "TxRefAmp": 264.053,
  "dcmmeta_affine": [
    [-2.972972869873047, 0.0, 0.0, 105.18071746826172],
    [0.0, 2.972972869873047, 0.0, -90.7968521118164],
    [0.0, 0.0, 3.999999761581421, -74.45759582519531],
    [0.0, 0.0, 0.0, 1.0]
],
  "dcmmeta_reorient_transform": [
    [0.0, -1.0, 0.0, 73.0],
    [1.0, 0.0, 0.0, 0.0],
    [0.0, 0.0, 1.0, 0.0],
    [0.0, 0.0, 0.0, 1.0]
],
  "dcmmeta_shape": [74, 74, 32, 300],
  "dcmmeta_slice_dim": 2,
  "dcmmeta_version": 0.6,
  "global": {
    "const": {
      "AcquisitionMatrix": [74, 0, 0, 74],
      "AngioFlag": "N",
      "BitsAllocated": 16,
      "BitsStored": 12,
      "BodyPartExamined": "HEAD",
      "Columns": 444,
      "EchoNumbers": 1,
      "EchoTime": 30.0,
      "EchoTrainLength": 1,
      "FlipAngle": 70.0,
      "HighBit": 11,
      "ImageOrientationPatient": [1.0, 0.0, 0.0, 0.0, 1.0, 0.0],
      "ImagePositionPatient": [-655.18069982529, -676.23014640808, -74.457595825195],
      "ImageType": [
        "ORIGINAL",
        "PRIMARY",
        "M",
        "ND",
        "NORM",
        "MOSAIC"
],
      "ImagedNucleus": "1H",
      "ImagingFrequency": 123.223133,
      "InPlanePhaseEncodingDirection": "COL",
      "MRAcquisitionType": "2D",
      "MagneticFieldStrength": 3.0,
      "Manufacturer": "SIEMENS",
      "ManufacturerModelName": "TrioTim",
      "Modality": "MR",
      "NumberOfAverages": 1.0,
      "NumberOfPhaseEncodingSteps": 74,
      "PercentPhaseFieldOfView": 100.0,
      "PercentSampling": 100.0,
      "PerformedProcedureStepStartTime": "091240.171000",
      "PhotometricInterpretation": "MONOCHROME2",
      "PixelBandwidth": 2815.0,
      "PixelRepresentation": 0,
      "PixelSpacing": [2.972972869873, 2.972972869873],
      "ProtocolName": "RestingState",
      "RepetitionTime": 2000.0,
      "Rows": 444,
      "SAR": 0.13042401286809,
      "SamplesPerPixel": 1,
      "ScanOptions": "FS",
      "ScanningSequence": "EP",
      "SequenceName": "*epfid2d1_74",
      "SequenceVariant": "SK",
      "SeriesDescription": "RestingState",
      "SeriesNumber": 3,
      "SeriesTime": "100151.015000",
      "SliceLocation": -74.457595825195,
      "SliceThickness": 4.0,
      "SmallestImagePixelValue": 0,
      "SoftwareVersions": "syngo MR B19",
      "SpacingBetweenSlices": 3.9999998769452,
      "SpecificCharacterSet": "ISO_IR 100",
      "StudyID": "1",
      "StudyTime": "091240.078000",
      "TransmitCoilName": "Body",
      "VariableFlipAngleFlag": "N",
      "WindowCenterWidthExplanation": "Algo1",
      "dBdt": 0.0},
    "slices": {}
  },
  "time": {
    "samples": {
      "AcquisitionNumber": [1, 2, 3, 4, 5, 6, 7, 8, 9, 10, 11, 12, 13, 14, 15, 16, 17, 18, 19, 20, 21, 22, 23, 24, 25, 26, 27, 28, 29, 30, 31, 32, 33, 34, 35, 36, 37, 38, 39, 40, 41, 42, 43, 44, 45, 46, 47, 48, 49, 50, 51, 52, 53, 54, 55, 56, 57, 58, 59, 60, 61, 62, 63, 64, 65, 66, 67, 68, 69, 70, 71, 72, 73, 74, 75, 76, 77, 78, 79, 80, 81, 82, 83, 84, 85, 86, 87, 88, 89, 90, 91, 92, 93, 94, 95, 96, 97, 98, 99, 100, 101, 102, 103, 104, 105, 106, 107, 108, 109, 110, 111, 112, 113, 114, 115, 116, 117, 118, 119, 120, 121, 122, 123, 124, 125, 126, 127, 128, 129, 130, 131, 132, 133, 134, 135, 136, 137, 138, 139, 140, 141, 142, 143, 144, 145, 146, 147, 148, 149, 150, 151, 152, 153, 154, 155, 156, 157, 158, 159, 160, 161, 162, 163, 164, 165, 166, 167, 168, 169, 170, 171, 172, 173, 174, 175, 176, 177, 178, 179, 180, 181, 182, 183, 184, 185, 186, 187, 188, 189, 190, 191, 192, 193, 194, 195, 196, 197, 198, 199, 200, 201, 202, 203, 204, 205, 206, 207, 208, 209, 210, 211, 212, 213, 214, 215, 216, 217, 218, 219, 220, 221, 222, 223, 224, 225, 226, 227, 228, 229, 230, 231, 232, 233, 234, 235, 236, 237, 238, 239, 240, 241, 242, 243, 244, 245, 246, 247, 248, 249, 250, 251, 252, 253, 254, 255, 256, 257, 258, 259, 260, 261, 262, 263, 264, 265, 266, 267, 268, 269, 270, 271, 272, 273, 274, 275, 276, 277, 278, 279, 280, 281, 282, 283, 284, 285, 286, 287, 288, 289, 290, 291, 292, 293, 294, 295, 296, 297, 298, 299, 300],
      "AcquisitionTime": ["100104.480000", "100106.487500", "100108.495000", "100110.505000", "100112.512500", "100114.520000", "100116.527500", "100118.535000", "100120.545000", "100122.552500", "100124.560000", "100126.567500", "100128.577500", "100130.585000", "100132.592500", "100134.600000", "100136.607500", "100138.617500", "100140.625000", "100142.632500", "100144.640000", "100146.647500", "100148.657500", "100150.665000", "100152.672500", "100154.680000", "100156.690000", "100158.697500", "100200.705000", "100202.712500", "100204.720000", "100206.730000", "100208.737500", "100210.745000", "100212.752500", "100214.760000", "100216.770000", "100218.777500", "100220.785000", "100222.792500", "100224.800000", "100226.810000", "100228.817500", "100230.825000", "100232.832500", "100234.842500", "100236.850000", "100238.857500", "100240.865000", "100242.872500", "100244.882500", "100246.890000", "100248.897500", "100250.905000", "100252.912500", "100254.922500", "100256.930000", "100258.937500", "100300.945000", "100302.955000", "100304.962500", "100306.970000", "100308.977500", "100310.985000", "100312.995000", "100315.002500", "100317.010000", "100319.017500", "100321.025000", "100323.035000", "100325.042500", "100327.050000", "100329.057500", "100331.067500", "100333.075000", "100335.082500", "100337.090000", "100339.097500", "100341.107500", "100343.115000", "100345.122500", "100347.130000", "100349.137500", "100351.147500", "100353.155000", "100355.162500", "100357.170000", "100359.177500", "100401.187500", "100403.195000", "100405.202500", "100407.210000", "100409.220000", "100411.227500", "100413.235000", "100415.242500", "100417.250000", "100419.260000", "100421.267500", "100423.275000", "100425.282500", "100427.290000", "100429.300000", "100431.307500", "100433.315000", "100435.322500", "100437.332500", "100439.340000", "100441.347500", "100443.355000", "100445.362500", "100447.372500", "100449.380000", "100451.387500", "100453.395000", "100455.402500", "100457.412500", "100459.420000", "100501.427500", "100503.435000", "100505.445000", "100507.452500", "100509.460000", "100511.467500", "100513.475000", "100515.485000", "100517.492500", "100519.500000", "100521.507500", "100523.515000", "100525.525000", "100527.532500", "100529.540000", "100531.547500", "100533.555000", "100535.565000", "100537.572500", "100539.580000", "100541.587500", "100543.597500", "100545.605000", "100547.612500", "100549.620000", "100551.627500", "100553.637500", "100555.645000", "100557.652500", "100559.660000", "100601.667500", "100603.677500", "100605.685000", "100607.692500", "100609.700000", "100611.710000", "100613.717500", "100615.725000", "100617.732500", "100619.740000", "100621.750000", "100623.757500", "100625.765000", "100627.772500", "100629.780000", "100631.790000", "100633.797500", "100635.805000", "100637.812500", "100639.822500", "100641.830000", "100643.837500", "100645.845000", "100647.852500", "100649.862500", "100651.870000", "100653.877500", "100655.885000", "100657.892500", "100659.902500", "100701.910000", "100703.917500", "100705.925000", "100707.932500", "100709.942500", "100711.950000", "100713.957500", "100715.965000", "100717.975000", "100719.982500", "100721.990000", "100723.997500", "100726.005000", "100728.015000", "100730.022500", "100732.030000", "100734.037500", "100736.045000", "100738.055000", "100740.062500", "100742.070000", "100744.077500", "100746.087500", "100748.095000", "100750.102500", "100752.110000", "100754.117500", "100756.127500", "100758.135000", "100800.142500", "100802.150000", "100804.157500", "100806.167500", "100808.175000", "100810.182500", "100812.190000", "100814.200000", "100816.207500", "100818.215000", "100820.222500", "100822.230000", "100824.240000", "100826.247500", "100828.255000", "100830.262500", "100832.270000", "100834.280000", "100836.287500", "100838.295000", "100840.302500", "100842.312500", "100844.320000", "100846.327500", "100848.335000", "100850.342500", "100852.352500", "100854.360000", "100856.367500", "100858.375000", "100900.382500", "100902.392500", "100904.400000", "100906.407500", "100908.415000", "100910.422500", "100912.432500", "100914.440000", "100916.447500", "100918.455000", "100920.465000", "100922.472500", "100924.480000", "100926.487500", "100928.495000", "100930.505000", "100932.512500", "100934.520000", "100936.527500", "100938.535000", "100940.545000", "100942.552500", "100944.560000", "100946.567500", "100948.577500", "100950.585000", "100952.592500", "100954.600000", "100956.607500", "100958.617500", "101000.625000", "101002.632500", "101004.640000", "101006.647500", "101008.657500", "101010.665000", "101012.672500", "101014.680000", "101016.690000", "101018.697500", "101020.705000", "101022.712500", "101024.720000", "101026.730000", "101028.737500", "101030.745000", "101032.752500", "101034.760000", "101036.770000", "101038.777500", "101040.785000", "101042.792500", "101044.800000", "101046.810000", "101048.817500", "101050.825000", "101052.832500", "101054.842500", "101056.850000", "101058.857500", "101100.865000", "101102.872500", "101104.882500"],
      "ContentTime": ["100151.031000", "100151.031000", "100151.031000", "100151.046000", "100151.046000", "100151.046000", "100151.046000", "100151.062000", "100151.062000", "100151.062000", "100151.062000", "100151.062000", "100151.062000", "100151.062000", "100151.078000", "100151.078000", "100151.078000", "100151.078000", "100151.078000", "100151.093000", "100151.093000", "100151.093000", "100151.093000", "100231.000000", "100231.015000", "100231.015000", "100231.015000", "100231.031000", "100231.031000", "100231.031000", "100231.031000", "100231.031000", "100231.031000", "100231.046000", "100231.046000", "100231.046000", "100231.046000", "100231.046000", "100231.046000", "100231.046000", "100231.046000", "100231.062000", "100231.062000", "100311.000000", "100311.000000", "100311.015000", "100311.015000", "100311.015000", "100311.015000", "100311.015000", "100311.015000", "100311.015000", "100311.031000", "100311.031000", "100311.031000", "100311.031000", "100311.031000", "100311.031000", "100311.031000", "100311.031000", "100311.046000", "100311.046000", "100311.046000", "100351.000000", "100351.000000", "100351.015000", "100351.015000", "100351.015000", "100351.015000", "100351.015000", "100351.015000", "100351.031000", "100351.031000", "100351.031000", "100351.031000", "100351.031000", "100351.031000", "100351.031000", "100351.046000", "100351.046000", "100351.046000", "100351.046000", "100351.062000", "100431.000000", "100431.000000", "100431.015000", "100431.015000", "100431.015000", "100431.015000", "100431.015000", "100431.015000", "100431.015000", "100431.031000", "100431.031000", "100431.031000", "100431.031000", "100431.031000", "100431.031000", "100431.031000", "100431.031000", "100431.046000", "100431.046000", "100431.046000", "100511.000000", "100511.000000", "100511.015000", "100511.015000", "100511.015000", "100511.015000", "100511.015000", "100511.015000", "100511.015000", "100511.031000", "100511.031000", "100511.031000", "100511.031000", "100511.031000", "100511.031000", "100511.031000", "100511.031000", "100511.046000", "100511.046000", "100511.046000", "100551.000000", "100551.000000", "100551.015000", "100551.015000", "100551.015000", "100551.031000", "100551.031000", "100551.031000", "100551.031000", "100551.031000", "100551.031000", "100551.031000", "100551.031000", "100551.046000", "100551.046000", "100551.046000", "100551.046000", "100551.046000", "100551.046000", "100551.046000", "100611.000000", "100611.000000", "100611.015000", "100611.015000", "100611.015000", "100611.015000", "100611.015000", "100611.031000", "100611.031000", "100611.031000", "100651.000000", "100651.015000", "100651.015000", "100651.031000", "100651.031000", "100651.031000", "100651.031000", "100651.046000", "100651.046000", "100651.046000", "100651.046000", "100651.046000", "100651.046000", "100651.046000", "100651.062000", "100651.078000", "100651.078000", "100651.078000", "100651.093000", "100651.093000", "100731.000000", "100731.000000", "100731.015000", "100731.015000", "100731.015000", "100731.015000", "100731.015000", "100731.015000", "100731.015000", "100731.031000", "100731.031000", "100731.031000", "100731.046000", "100731.046000", "100731.046000", "100731.046000", "100731.046000", "100731.046000", "100731.062000", "100731.062000", "100811.000000", "100811.000000", "100811.015000", "100811.015000", "100811.015000", "100811.015000", "100811.015000", "100811.031000", "100811.031000", "100811.031000", "100811.031000", "100811.031000", "100811.031000", "100811.031000", "100811.031000", "100811.046000", "100811.046000", "100811.046000", "100811.046000", "100811.046000", "100851.000000", "100851.000000", "100851.015000", "100851.015000", "100851.015000", "100851.015000", "100851.015000", "100851.015000", "100851.015000", "100851.031000", "100851.031000", "100851.031000", "100851.031000", "100851.031000", "100851.031000", "100851.031000", "100851.031000", "100851.046000", "100851.046000", "100851.046000", "100931.000000", "100931.000000", "100931.015000", "100931.015000", "100931.015000", "100931.015000", "100931.015000", "100931.015000", "100931.015000", "100931.031000", "100931.031000", "100931.031000", "100931.031000", "100931.031000", "100931.031000", "100931.046000", "100931.046000", "100931.046000", "100931.046000", "100931.046000", "101011.000000", "101011.000000", "101011.015000", "101011.015000", "101011.015000", "101011.015000", "101011.015000", "101011.015000", "101011.015000", "101011.031000", "101011.031000", "101011.031000", "101011.031000", "101011.031000", "101011.031000", "101011.031000", "101011.031000", "101011.046000", "101011.046000", "101011.046000", "101051.000000", "101051.000000", "101051.015000", "101051.015000", "101051.015000", "101051.015000", "101051.015000", "101051.015000", "101051.015000", "101051.031000", "101051.031000", "101051.031000", "101051.031000", "101051.031000", "101051.031000", "101051.031000", "101051.031000", "101051.046000", "101051.046000", "101051.046000", "101103.609000", "101103.609000", "101103.609000", "101103.609000", "101103.625000", "101103.625000", "101103.625000"],
      "InstanceCreationTime": ["100151.031000", "100151.031000", "100151.031000", "100151.046000", "100151.046000", "100151.046000", "100151.046000", "100151.062000", "100151.062000", "100151.062000", "100151.062000", "100151.062000", "100151.062000", "100151.062000", "100151.078000", "100151.078000", "100151.078000", "100151.078000", "100151.078000", "100151.093000", "100151.093000", "100151.093000", "100151.093000", "100231.000000", "100231.015000", "100231.015000", "100231.015000", "100231.031000", "100231.031000", "100231.031000", "100231.031000", "100231.031000", "100231.031000", "100231.046000", "100231.046000", "100231.046000", "100231.046000", "100231.046000", "100231.046000", "100231.046000", "100231.046000", "100231.062000", "100231.062000", "100311.000000", "100311.000000", "100311.015000", "100311.015000", "100311.015000", "100311.015000", "100311.015000", "100311.015000", "100311.015000", "100311.031000", "100311.031000", "100311.031000", "100311.031000", "100311.031000", "100311.031000", "100311.031000", "100311.031000", "100311.046000", "100311.046000", "100311.046000", "100351.000000", "100351.000000", "100351.015000", "100351.015000", "100351.015000", "100351.015000", "100351.015000", "100351.015000", "100351.031000", "100351.031000", "100351.031000", "100351.031000", "100351.031000", "100351.031000", "100351.031000", "100351.046000", "100351.046000", "100351.046000", "100351.046000", "100351.062000", "100431.000000", "100431.000000", "100431.015000", "100431.015000", "100431.015000", "100431.015000", "100431.015000", "100431.015000", "100431.015000", "100431.031000", "100431.031000", "100431.031000", "100431.031000", "100431.031000", "100431.031000", "100431.031000", "100431.031000", "100431.046000", "100431.046000", "100431.046000", "100511.000000", "100511.000000", "100511.015000", "100511.015000", "100511.015000", "100511.015000", "100511.015000", "100511.015000", "100511.015000", "100511.031000", "100511.031000", "100511.031000", "100511.031000", "100511.031000", "100511.031000", "100511.031000", "100511.031000", "100511.046000", "100511.046000", "100511.046000", "100551.000000", "100551.000000", "100551.015000", "100551.015000", "100551.015000", "100551.031000", "100551.031000", "100551.031000", "100551.031000", "100551.031000", "100551.031000", "100551.031000", "100551.031000", "100551.046000", "100551.046000", "100551.046000", "100551.046000", "100551.046000", "100551.046000", "100551.046000", "100611.000000", "100611.000000", "100611.015000", "100611.015000", "100611.015000", "100611.015000", "100611.015000", "100611.031000", "100611.031000", "100611.031000", "100651.000000", "100651.015000", "100651.015000", "100651.031000", "100651.031000", "100651.031000", "100651.031000", "100651.046000", "100651.046000", "100651.046000", "100651.046000", "100651.046000", "100651.046000", "100651.046000", "100651.062000", "100651.078000", "100651.078000", "100651.078000", "100651.093000", "100651.093000", "100731.000000", "100731.000000", "100731.015000", "100731.015000", "100731.015000", "100731.015000", "100731.015000", "100731.015000", "100731.015000", "100731.031000", "100731.031000", "100731.031000", "100731.046000", "100731.046000", "100731.046000", "100731.046000", "100731.046000", "100731.046000", "100731.062000", "100731.062000", "100811.000000", "100811.000000", "100811.015000", "100811.015000", "100811.015000", "100811.015000", "100811.015000", "100811.031000", "100811.031000", "100811.031000", "100811.031000", "100811.031000", "100811.031000", "100811.031000", "100811.031000", "100811.046000", "100811.046000", "100811.046000", "100811.046000", "100811.046000", "100851.000000", "100851.000000", "100851.015000", "100851.015000", "100851.015000", "100851.015000", "100851.015000", "100851.015000", "100851.015000", "100851.031000", "100851.031000", "100851.031000", "100851.031000", "100851.031000", "100851.031000", "100851.031000", "100851.031000", "100851.046000", "100851.046000", "100851.046000", "100931.000000", "100931.000000", "100931.015000", "100931.015000", "100931.015000", "100931.015000", "100931.015000", "100931.015000", "100931.015000", "100931.031000", "100931.031000", "100931.031000", "100931.031000", "100931.031000", "100931.031000", "100931.046000", "100931.046000", "100931.046000", "100931.046000", "100931.046000", "101011.000000", "101011.000000", "101011.015000", "101011.015000", "101011.015000", "101011.015000", "101011.015000", "101011.015000", "101011.015000", "101011.031000", "101011.031000", "101011.031000", "101011.031000", "101011.031000", "101011.031000", "101011.031000", "101011.031000", "101011.046000", "101011.046000", "101011.046000", "101051.000000", "101051.000000", "101051.015000", "101051.015000", "101051.015000", "101051.015000", "101051.015000", "101051.015000", "101051.015000", "101051.031000", "101051.031000", "101051.031000", "101051.031000", "101051.031000", "101051.031000", "101051.031000", "101051.031000", "101051.046000", "101051.046000", "101051.046000", "101103.609000", "101103.609000", "101103.609000", "101103.609000", "101103.625000", "101103.625000", "101103.625000"],
      "InstanceNumber": [1, 2, 3, 4, 5, 6, 7, 8, 9, 10, 11, 12, 13, 14, 15, 16, 17, 18, 19, 20, 21, 22, 23, 24, 25, 26, 27, 28, 29, 30, 31, 32, 33, 34, 35, 36, 37, 38, 39, 40, 41, 42, 43, 44, 45, 46, 47, 48, 49, 50, 51, 52, 53, 54, 55, 56, 57, 58, 59, 60, 61, 62, 63, 64, 65, 66, 67, 68, 69, 70, 71, 72, 73, 74, 75, 76, 77, 78, 79, 80, 81, 82, 83, 84, 85, 86, 87, 88, 89, 90, 91, 92, 93, 94, 95, 96, 97, 98, 99, 100, 101, 102, 103, 104, 105, 106, 107, 108, 109, 110, 111, 112, 113, 114, 115, 116, 117, 118, 119, 120, 121, 122, 123, 124, 125, 126, 127, 128, 129, 130, 131, 132, 133, 134, 135, 136, 137, 138, 139, 140, 141, 142, 143, 144, 145, 146, 147, 148, 149, 150, 151, 152, 153, 154, 155, 156, 157, 158, 159, 160, 161, 162, 163, 164, 165, 166, 167, 168, 169, 170, 171, 172, 173, 174, 175, 176, 177, 178, 179, 180, 181, 182, 183, 184, 185, 186, 187, 188, 189, 190, 191, 192, 193, 194, 195, 196, 197, 198, 199, 200, 201, 202, 203, 204, 205, 206, 207, 208, 209, 210, 211, 212, 213, 214, 215, 216, 217, 218, 219, 220, 221, 222, 223, 224, 225, 226, 227, 228, 229, 230, 231, 232, 233, 234, 235, 236, 237, 238, 239, 240, 241, 242, 243, 244, 245, 246, 247, 248, 249, 250, 251, 252, 253, 254, 255, 256, 257, 258, 259, 260, 261, 262, 263, 264, 265, 266, 267, 268, 269, 270, 271, 272, 273, 274, 275, 276, 277, 278, 279, 280, 281, 282, 283, 284, 285, 286, 287, 288, 289, 290, 291, 292, 293, 294, 295, 296, 297, 298, 299, 300],
      "LargestImagePixelValue": [1670, 1545, 1470, 1610, 1438, 1539, 1503, 1708, 1472, 1514, 1534, 1533, 1555, 1397, 1798, 1556, 1549, 1588, 1549, 1573, 1581, 1522, 1525, 1590, 1674, 1453, 1527, 1634, 1509, 1533, 1730, 1436, 1430, 1533, 1490, 1533, 1517, 1468, 1499, 1602, 1508, 1532, 1551, 1483, 1399, 1457, 1545, 1531, 1614, 1350, 1529, 1543, 1452, 1568, 1607, 1533, 1515, 1692, 1512, 1526, 1785, 1491, 1312, 1461, 1534, 1524, 1545, 1619, 1440, 1511, 1530, 1442, 1536, 1392, 1454, 1687, 1531, 1742, 1387, 1604, 1489, 1671, 1489, 1534, 1434, 1488, 1532, 1529, 1503, 1565, 1530, 1560, 1516, 1532, 1448, 1344, 1777, 1528, 1513, 1520, 1507, 1537, 1624, 1421, 1457, 1513, 1566, 1456, 1470, 1524, 1513, 1578, 1494, 1507, 1627, 1464, 1321, 1507, 1588, 1464, 1332, 1475, 1340, 1582, 1548, 1542, 1287, 1511, 1578, 1461, 1551, 1692, 1449, 1547, 1573, 1582, 1642, 1431, 1536, 1549, 1542, 1545, 1308, 1477, 1530, 1613, 1579, 1514, 1547, 1616, 1508, 1554, 1575, 1487, 1539, 1565, 1418, 1539, 1490, 1504, 1365, 1510, 1474, 1543, 1475, 1576, 1562, 1320, 1578, 1552, 1513, 1378, 1569, 1294, 1501, 1527, 1570, 1528, 1481, 1613, 1413, 1329, 1530, 1570, 1433, 1517, 1557, 1406, 1510, 1402, 1478, 1523, 1470, 1480, 1481, 1372, 1566, 1502, 1545, 1444, 1469, 1468, 1526, 1529, 1473, 1483, 1525, 1716, 1426, 1517, 1577, 1421, 1441, 1456, 1631, 1453, 1559, 1466, 1498, 1513, 1516, 1423, 1506, 1383, 1337, 1430, 1490, 1524, 1468, 1469, 1474, 1481, 1349, 1445, 1408, 1449, 1467, 1532, 1482, 1434, 1436, 1453, 1536, 1338, 1387, 1510, 1597, 1443, 1366, 1433, 1336, 1464, 1516, 1493, 1491, 1517, 1446, 1484, 1521, 1511, 1466, 1434, 1473, 1491, 1448, 1504, 1443, 1446, 1510, 1507, 1547, 1500, 1455, 1390, 1479, 1456, 1483, 1337, 1435, 1547, 1514, 1522, 1489, 1467, 1551, 1516, 1546, 1499, 1516, 1525, 1486, 1501, 1483, 1465, 1398, 1512, 1535, 1357, 1485, 1493],
      "WindowCenter": [578.0, 574.0, 572.0, 573.0, 573.0, 572.0, 573.0, 573.0, 572.0, 573.0, 572.0, 573.0, 573.0, 572.0, 574.0, 572.0, 574.0, 573.0, 573.0, 574.0, 573.0, 573.0, 575.0, 574.0, 574.0, 573.0, 574.0, 574.0, 572.0, 574.0, 576.0, 573.0, 573.0, 575.0, 573.0, 573.0, 573.0, 576.0, 573.0, 574.0, 574.0, 573.0, 573.0, 572.0, 573.0, 575.0, 574.0, 574.0, 574.0, 573.0, 574.0, 576.0, 574.0, 576.0, 576.0, 576.0, 575.0, 576.0, 575.0, 575.0, 578.0, 575.0, 573.0, 576.0, 574.0, 575.0, 575.0, 575.0, 573.0, 574.0, 575.0, 574.0, 575.0, 575.0, 575.0, 578.0, 576.0, 578.0, 574.0, 574.0, 573.0, 574.0, 573.0, 574.0, 573.0, 575.0, 576.0, 578.0, 577.0, 576.0, 576.0, 577.0, 577.0, 577.0, 576.0, 576.0, 579.0, 577.0, 576.0, 576.0, 576.0, 577.0, 578.0, 576.0, 577.0, 581.0, 580.0, 578.0, 578.0, 579.0, 578.0, 578.0, 578.0, 578.0, 580.0, 577.0, 577.0, 580.0, 579.0, 579.0, 578.0, 580.0, 578.0, 580.0, 580.0, 580.0, 577.0, 581.0, 580.0, 579.0, 580.0, 582.0, 578.0, 578.0, 581.0, 581.0, 580.0, 577.0, 578.0, 579.0, 579.0, 578.0, 577.0, 578.0, 579.0, 579.0, 580.0, 580.0, 579.0, 581.0, 579.0, 580.0, 580.0, 579.0, 580.0, 580.0, 579.0, 580.0, 579.0, 579.0, 578.0, 581.0, 580.0, 580.0, 581.0, 581.0, 581.0, 578.0, 581.0, 580.0, 580.0, 578.0, 580.0, 577.0, 581.0, 581.0, 581.0, 580.0, 582.0, 582.0, 579.0, 580.0, 582.0, 582.0, 579.0, 580.0, 581.0, 580.0, 580.0, 580.0, 583.0, 582.0, 581.0, 580.0, 579.0, 579.0, 580.0, 578.0, 579.0, 578.0, 579.0, 583.0, 583.0, 583.0, 583.0, 584.0, 584.0, 583.0, 581.0, 583.0, 582.0, 578.0, 578.0, 581.0, 582.0, 580.0, 580.0, 579.0, 581.0, 580.0, 580.0, 579.0, 582.0, 579.0, 578.0, 579.0, 580.0, 580.0, 581.0, 582.0, 583.0, 586.0, 584.0, 584.0, 584.0, 585.0, 583.0, 582.0, 582.0, 582.0, 581.0, 582.0, 583.0, 581.0, 583.0, 584.0, 584.0, 581.0, 581.0, 582.0, 580.0, 581.0, 581.0, 584.0, 584.0, 583.0, 583.0, 584.0, 584.0, 584.0, 582.0, 581.0, 581.0, 582.0, 582.0, 582.0, 584.0, 583.0, 584.0, 584.0, 585.0, 585.0, 585.0, 585.0, 584.0, 583.0, 584.0, 583.0, 584.0, 583.0, 583.0, 585.0, 583.0, 582.0, 585.0, 585.0, 585.0, 584.0, 585.0, 585.0, 583.0, 585.0, 584.0, 583.0, 583.0, 584.0, 584.0, 582.0, 584.0, 583.0],
      "WindowWidth": [1210.0, 1202.0, 1199.0, 1200.0, 1199.0, 1198.0, 1200.0, 1199.0, 1198.0, 1200.0, 1198.0, 1200.0, 1199.0, 1198.0, 1201.0, 1198.0, 1201.0, 1199.0, 1200.0, 1202.0, 1200.0, 1201.0, 1204.0, 1203.0, 1202.0, 1199.0, 1202.0, 1202.0, 1197.0, 1202.0, 1204.0, 1200.0, 1200.0, 1203.0, 1200.0, 1199.0, 1200.0, 1206.0, 1200.0, 1201.0, 1202.0, 1200.0, 1200.0, 1198.0, 1201.0, 1204.0, 1202.0, 1202.0, 1202.0, 1201.0, 1202.0, 1206.0, 1202.0, 1207.0, 1206.0, 1207.0, 1204.0, 1207.0, 1203.0, 1204.0, 1210.0, 1204.0, 1201.0, 1205.0, 1202.0, 1204.0, 1204.0, 1203.0, 1201.0, 1203.0, 1204.0, 1202.0, 1203.0, 1205.0, 1205.0, 1211.0, 1207.0, 1210.0, 1202.0, 1203.0, 1200.0, 1202.0, 1200.0, 1202.0, 1201.0, 1205.0, 1206.0, 1211.0, 1208.0, 1206.0, 1206.0, 1209.0, 1208.0, 1209.0, 1207.0, 1208.0, 1213.0, 1209.0, 1206.0, 1205.0, 1206.0, 1209.0, 1210.0, 1208.0, 1209.0, 1216.0, 1214.0, 1211.0, 1211.0, 1213.0, 1210.0, 1209.0, 1210.0, 1212.0, 1214.0, 1210.0, 1210.0, 1214.0, 1214.0, 1213.0, 1212.0, 1214.0, 1211.0, 1215.0, 1215.0, 1214.0, 1210.0, 1216.0, 1215.0, 1213.0, 1215.0, 1219.0, 1211.0, 1211.0, 1217.0, 1216.0, 1214.0, 1209.0, 1210.0, 1213.0, 1213.0, 1211.0, 1209.0, 1211.0, 1212.0, 1212.0, 1216.0, 1215.0, 1214.0, 1216.0, 1212.0, 1215.0, 1215.0, 1212.0, 1216.0, 1216.0, 1214.0, 1214.0, 1214.0, 1213.0, 1212.0, 1217.0, 1214.0, 1216.0, 1219.0, 1217.0, 1218.0, 1213.0, 1217.0, 1215.0, 1215.0, 1212.0, 1215.0, 1210.0, 1217.0, 1217.0, 1217.0, 1216.0, 1220.0, 1218.0, 1214.0, 1215.0, 1219.0, 1219.0, 1213.0, 1215.0, 1218.0, 1215.0, 1216.0, 1215.0, 1221.0, 1220.0, 1217.0, 1214.0, 1214.0, 1214.0, 1214.0, 1211.0, 1214.0, 1211.0, 1213.0, 1221.0, 1222.0, 1221.0, 1222.0, 1225.0, 1224.0, 1222.0, 1217.0, 1221.0, 1218.0, 1212.0, 1211.0, 1217.0, 1220.0, 1215.0, 1215.0, 1214.0, 1218.0, 1216.0, 1216.0, 1213.0, 1219.0, 1215.0, 1212.0, 1213.0, 1215.0, 1215.0, 1217.0, 1219.0, 1222.0, 1228.0, 1225.0, 1224.0, 1224.0, 1227.0, 1222.0, 1221.0, 1220.0, 1219.0, 1218.0, 1219.0, 1221.0, 1218.0, 1223.0, 1223.0, 1223.0, 1218.0, 1219.0, 1220.0, 1217.0, 1218.0, 1217.0, 1223.0, 1223.0, 1222.0, 1223.0, 1223.0, 1225.0, 1223.0, 1220.0, 1217.0, 1219.0, 1220.0, 1220.0, 1220.0, 1223.0, 1221.0, 1224.0, 1224.0, 1225.0, 1226.0, 1225.0, 1226.0, 1225.0, 1223.0, 1224.0, 1222.0, 1223.0, 1222.0, 1223.0, 1226.0, 1222.0, 1220.0, 1226.0, 1226.0, 1226.0, 1224.0, 1226.0, 1226.0, 1223.0, 1225.0, 1224.0, 1222.0, 1222.0, 1224.0, 1224.0, 1219.0, 1223.0, 1223.0]
    },
    "slices": {}
  }
}