{
  "AcquisitionMatrixPE": 74,
  "AcquisitionNumber": 1,
  "AcquisitionTime": "10:23:7.535000",
  "BandwidthPerPixelPhaseEncode": 27.579,
  "BaseResolution": 74,
  "BodyPartExamined": "HEAD",
  "CoilString": "t:HEA;HEP",
  "ConversionSoftware": "dcm2niix",
  "ConversionSoftwareVersion": "v1.0.20190410  GCC6.3.0",
  "DerivedVendorReportedEchoSpacing": 0.000489993,
  "DeviceSerialNumber": "35256",
  "DwellTime": 2.4e-06,
  "EchoTime": 0.03,
  "EffectiveEchoSpacing": 0.000489993,
  "FlipAngle": 70,
  "ImageOrientationPatientDICOM": [1, 0, 0, 0, 1, 0],
  "ImageType": [
    "ORIGINAL",
    "PRIMARY",
    "M",
    "ND",
    "NORM",
    "MOSAIC"
],
  "ImagingFrequency": 123.223,
  "InPlanePhaseEncodingDirectionDICOM": "COL",
  "InstitutionAddress": "East_Lee_St._2907_Greensboro_NC_US_27401",
  "InstitutionName": "JSNN",
  "InstitutionalDepartmentName": "Department",
  "MRAcquisitionType": "2D",
  "MagneticFieldStrength": 3,
  "Manufacturer": "Siemens",
  "ManufacturersModelName": "TrioTim",
  "Modality": "MR",
  "PartialFourier": 1,
  "PatientPosition": "HFS",
  "PercentPhaseFOV": 100,
  "PhaseEncodingDirection": "j-",
  "PhaseEncodingSteps": 74,
  "PhaseResolution": 1,
  "PixelBandwidth": 2815,
  "ProcedureStepDescription": "head_Cassidy",
  "ProtocolName": "RestingState",
  "PulseSequenceDetails": "%SiemensSeq%_ep2d_bold",
  "ReceiveCoilName": "HeadMatrix",
  "ReconMatrixPE": 74,
  "RepetitionTime": 2,
  "SAR": 0.0960937,
  "ScanOptions": "FS",
  "ScanningSequence": "EP",
  "SequenceName": "_epfid2d1_74",
  "SequenceVariant": "SK",
  "SeriesDescription": "RestingState",
  "SeriesNumber": 3,
  "ShimSetting": [1424, 10550, -8798, 559, 102, -308, -273, -20],
  "SliceThickness": 4,
  "SliceTiming": [1.945, 1.8825, 1.82, 1.7575, 1.695, 1.63, 1.5675, 1.505, 1.4425, 1.38, 1.3175, 1.255, 1.1925, 1.13, 1.0675, 1.005, 0.94, 0.8775, 0.815, 0.7525, 0.69, 0.6275, 0.565, 0.5025, 0.44, 0.3775, 0.315, 0.25, 0.1875, 0.125, 0.0625, 0],
  "SoftwareVersions": "syngo_MR_B19",
  "SpacingBetweenSlices": 4,
  "StationName": "JSNNMRI",
  "TaskName": "rest",
  "TotalReadoutTime": 0.0357695,
  "TxRefAmp": 251.763,
  "dcmmeta_affine": [
    [-2.972972869873047, 0.0, 0.0, 105.18071746826172],
    [0.0, 2.972972869873047, 0.0, -98.235107421875],
    [0.0, 0.0, 4.0, -70.11861419677734],
    [0.0, 0.0, 0.0, 1.0]
],
  "dcmmeta_reorient_transform": [
    [0.0, -1.0, 0.0, 73.0],
    [1.0, 0.0, 0.0, 0.0],
    [0.0, 0.0, 1.0, 0.0],
    [0.0, 0.0, 0.0, 1.0]
],
  "dcmmeta_shape": [74, 74, 32, 300],
  "dcmmeta_slice_dim": 2,
  "dcmmeta_version": 0.6,
  "global": {
    "const": {
      "AcquisitionMatrix": [74, 0, 0, 74],
      "AngioFlag": "N",
      "BitsAllocated": 16,
      "BitsStored": 12,
      "BodyPartExamined": "HEAD",
      "Columns": 444,
      "EchoNumbers": 1,
      "EchoTime": 30.0,
      "EchoTrainLength": 1,
      "FlipAngle": 70.0,
      "HighBit": 11,
      "ImageOrientationPatient": [1.0, 0.0, 0.0, 0.0, 1.0, 0.0],
      "ImagePositionPatient": [-655.18069982529, -668.79189014435, -70.118614196777],
      "ImageType": [
        "ORIGINAL",
        "PRIMARY",
        "M",
        "ND",
        "NORM",
        "MOSAIC"
],
      "ImagedNucleus": "1H",
      "ImagingFrequency": 123.223122,
      "InPlanePhaseEncodingDirection": "COL",
      "MRAcquisitionType": "2D",
      "MagneticFieldStrength": 3.0,
      "Manufacturer": "SIEMENS",
      "ManufacturerModelName": "TrioTim",
      "Modality": "MR",
      "NumberOfAverages": 1.0,
      "NumberOfPhaseEncodingSteps": 74,
      "PercentPhaseFieldOfView": 100.0,
      "PercentSampling": 100.0,
      "PerformedProcedureStepStartTime": "093508.000000",
      "PhotometricInterpretation": "MONOCHROME2",
      "PixelBandwidth": 2815.0,
      "PixelRepresentation": 0,
      "PixelSpacing": [2.972972869873, 2.972972869873],
      "ProtocolName": "RestingState",
      "RepetitionTime": 2000.0,
      "Rows": 444,
      "SAR": 0.09609365795649,
      "SamplesPerPixel": 1,
      "ScanOptions": "FS",
      "ScanningSequence": "EP",
      "SequenceName": "*epfid2d1_74",
      "SequenceVariant": "SK",
      "SeriesDescription": "RestingState",
      "SeriesNumber": 3,
      "SeriesTime": "102400.375000",
      "SliceLocation": -70.118614196777,
      "SliceThickness": 4.0,
      "SmallestImagePixelValue": 0,
      "SoftwareVersions": "syngo MR B19",
      "SpacingBetweenSlices": 4.0,
      "SpecificCharacterSet": "ISO_IR 100",
      "StudyID": "1",
      "StudyTime": "093507.906000",
      "TransmitCoilName": "Body",
      "VariableFlipAngleFlag": "N",
      "WindowCenterWidthExplanation": "Algo1",
      "dBdt": 0.0},
    "slices": {}
  },
  "time": {
    "samples": {
      "AcquisitionNumber": [1, 2, 3, 4, 5, 6, 7, 8, 9, 10, 11, 12, 13, 14, 15, 16, 17, 18, 19, 20, 21, 22, 23, 24, 25, 26, 27, 28, 29, 30, 31, 32, 33, 34, 35, 36, 37, 38, 39, 40, 41, 42, 43, 44, 45, 46, 47, 48, 49, 50, 51, 52, 53, 54, 55, 56, 57, 58, 59, 60, 61, 62, 63, 64, 65, 66, 67, 68, 69, 70, 71, 72, 73, 74, 75, 76, 77, 78, 79, 80, 81, 82, 83, 84, 85, 86, 87, 88, 89, 90, 91, 92, 93, 94, 95, 96, 97, 98, 99, 100, 101, 102, 103, 104, 105, 106, 107, 108, 109, 110, 111, 112, 113, 114, 115, 116, 117, 118, 119, 120, 121, 122, 123, 124, 125, 126, 127, 128, 129, 130, 131, 132, 133, 134, 135, 136, 137, 138, 139, 140, 141, 142, 143, 144, 145, 146, 147, 148, 149, 150, 151, 152, 153, 154, 155, 156, 157, 158, 159, 160, 161, 162, 163, 164, 165, 166, 167, 168, 169, 170, 171, 172, 173, 174, 175, 176, 177, 178, 179, 180, 181, 182, 183, 184, 185, 186, 187, 188, 189, 190, 191, 192, 193, 194, 195, 196, 197, 198, 199, 200, 201, 202, 203, 204, 205, 206, 207, 208, 209, 210, 211, 212, 213, 214, 215, 216, 217, 218, 219, 220, 221, 222, 223, 224, 225, 226, 227, 228, 229, 230, 231, 232, 233, 234, 235, 236, 237, 238, 239, 240, 241, 242, 243, 244, 245, 246, 247, 248, 249, 250, 251, 252, 253, 254, 255, 256, 257, 258, 259, 260, 261, 262, 263, 264, 265, 266, 267, 268, 269, 270, 271, 272, 273, 274, 275, 276, 277, 278, 279, 280, 281, 282, 283, 284, 285, 286, 287, 288, 289, 290, 291, 292, 293, 294, 295, 296, 297, 298, 299, 300],
      "AcquisitionTime": ["102307.535000", "102309.542500", "102311.550000", "102313.560000", "102315.567500", "102317.575000", "102319.582500", "102321.590000", "102323.600000", "102325.607500", "102327.615000", "102329.622500", "102331.630000", "102333.640000", "102335.647500", "102337.655000", "102339.662500", "102341.672500", "102343.680000", "102345.687500", "102347.695000", "102349.702500", "102351.712500", "102353.720000", "102355.727500", "102357.735000", "102359.742500", "102401.752500", "102403.760000", "102405.767500", "102407.775000", "102409.785000", "102411.792500", "102413.800000", "102415.807500", "102417.815000", "102419.825000", "102421.832500", "102423.840000", "102425.847500", "102427.855000", "102429.865000", "102431.872500", "102433.880000", "102435.887500", "102437.895000", "102439.905000", "102441.912500", "102443.920000", "102445.927500", "102447.937500", "102449.945000", "102451.952500", "102453.960000", "102455.967500", "102457.977500", "102459.985000", "102501.992500", "102504.000000", "102506.007500", "102508.017500", "102510.025000", "102512.032500", "102514.040000", "102516.050000", "102518.057500", "102520.065000", "102522.072500", "102524.080000", "102526.090000", "102528.097500", "102530.105000", "102532.112500", "102534.120000", "102536.130000", "102538.137500", "102540.145000", "102542.152500", "102544.162500", "102546.170000", "102548.177500", "102550.185000", "102552.192500", "102554.202500", "102556.210000", "102558.217500", "102600.225000", "102602.232500", "102604.242500", "102606.250000", "102608.257500", "102610.265000", "102612.272500", "102614.282500", "102616.290000", "102618.297500", "102620.305000", "102622.315000", "102624.322500", "102626.330000", "102628.337500", "102630.345000", "102632.355000", "102634.362500", "102636.370000", "102638.377500", "102640.385000", "102642.395000", "102644.402500", "102646.410000", "102648.417500", "102650.427500", "102652.435000", "102654.442500", "102656.450000", "102658.457500", "102700.467500", "102702.475000", "102704.482500", "102706.490000", "102708.497500", "102710.507500", "102712.515000", "102714.522500", "102716.530000", "102718.540000", "102720.547500", "102722.555000", "102724.562500", "102726.570000", "102728.580000", "102730.587500", "102732.595000", "102734.602500", "102736.610000", "102738.620000", "102740.627500", "102742.635000", "102744.642500", "102746.650000", "102748.660000", "102750.667500", "102752.675000", "102754.682500", "102756.692500", "102758.700000", "102800.707500", "102802.715000", "102804.722500", "102806.732500", "102808.740000", "102810.747500", "102812.755000", "102814.762500", "102816.772500", "102818.780000", "102820.787500", "102822.795000", "102824.805000", "102826.812500", "102828.820000", "102830.827500", "102832.835000", "102834.845000", "102836.852500", "102838.860000", "102840.867500", "102842.875000", "102844.885000", "102846.892500", "102848.900000", "102850.907500", "102852.917500", "102854.925000", "102856.932500", "102858.940000", "102900.947500", "102902.957500", "102904.965000", "102906.972500", "102908.980000", "102910.987500", "102912.997500", "102915.005000", "102917.012500", "102919.020000", "102921.027500", "102923.037500", "102925.045000", "102927.052500", "102929.060000", "102931.070000", "102933.077500", "102935.085000", "102937.092500", "102939.100000", "102941.110000", "102943.117500", "102945.125000", "102947.132500", "102949.140000", "102951.150000", "102953.157500", "102955.165000", "102957.172500", "102959.182500", "103001.190000", "103003.197500", "103005.205000", "103007.212500", "103009.222500", "103011.230000", "103013.237500", "103015.245000", "103017.252500", "103019.262500", "103021.270000", "103023.277500", "103025.285000", "103027.295000", "103029.302500", "103031.310000", "103033.317500", "103035.325000", "103037.335000", "103039.342500", "103041.350000", "103043.357500", "103045.365000", "103047.375000", "103049.382500", "103051.390000", "103053.397500", "103055.407500", "103057.415000", "103059.422500", "103101.430000", "103103.437500", "103105.447500", "103107.455000", "103109.462500", "103111.470000", "103113.477500", "103115.487500", "103117.495000", "103119.502500", "103121.510000", "103123.517500", "103125.527500", "103127.535000", "103129.542500", "103131.550000", "103133.560000", "103135.567500", "103137.575000", "103139.582500", "103141.590000", "103143.600000", "103145.607500", "103147.615000", "103149.622500", "103151.630000", "103153.640000", "103155.647500", "103157.655000", "103159.662500", "103201.672500", "103203.680000", "103205.687500", "103207.695000", "103209.702500", "103211.712500", "103213.720000", "103215.727500", "103217.735000", "103219.742500", "103221.752500", "103223.760000", "103225.767500", "103227.775000", "103229.785000", "103231.792500", "103233.800000", "103235.807500", "103237.815000", "103239.825000", "103241.832500", "103243.840000", "103245.847500", "103247.855000", "103249.865000", "103251.872500", "103253.880000", "103255.887500", "103257.895000", "103259.905000", "103301.912500", "103303.920000", "103305.927500", "103307.937500"],
      "ContentTime": ["102400.390000", "102400.390000", "102400.390000", "102400.390000", "102400.390000", "102400.406000", "102400.406000", "102400.406000", "102400.406000", "102400.406000", "102400.406000", "102400.406000", "102400.421000", "102400.421000", "102400.421000", "102400.421000", "102400.421000", "102400.421000", "102400.437000", "102400.437000", "102400.437000", "102400.437000", "102400.437000", "102400.437000", "102400.437000", "102400.453000", "102440.375000", "102440.375000", "102440.375000", "102440.375000", "102440.375000", "102440.375000", "102440.375000", "102440.390000", "102440.390000", "102440.406000", "102440.406000", "102440.406000", "102440.406000", "102440.406000", "102440.406000", "102440.406000", "102440.421000", "102440.421000", "102440.421000", "102440.421000", "102520.375000", "102520.375000", "102520.375000", "102520.375000", "102520.375000", "102520.375000", "102520.375000", "102520.390000", "102520.390000", "102520.390000", "102520.390000", "102520.390000", "102520.390000", "102520.390000", "102520.390000", "102520.406000", "102520.406000", "102520.406000", "102520.406000", "102520.406000", "102600.375000", "102600.375000", "102600.375000", "102600.375000", "102600.375000", "102600.375000", "102600.375000", "102600.390000", "102600.390000", "102600.390000", "102600.390000", "102600.390000", "102600.406000", "102600.406000", "102600.406000", "102600.406000", "102600.406000", "102600.406000", "102600.421000", "102600.421000", "102640.375000", "102640.375000", "102640.375000", "102640.375000", "102640.375000", "102640.375000", "102640.375000", "102640.390000", "102640.390000", "102640.390000", "102640.390000", "102640.390000", "102640.390000", "102640.390000", "102640.390000", "102640.406000", "102640.406000", "102640.406000", "102640.406000", "102640.406000", "102720.375000", "102720.375000", "102720.375000", "102720.375000", "102720.375000", "102720.375000", "102720.375000", "102720.390000", "102720.390000", "102720.390000", "102720.390000", "102720.390000", "102720.390000", "102720.390000", "102720.390000", "102720.406000", "102720.406000", "102720.406000", "102720.406000", "102720.406000", "102800.375000", "102800.375000", "102800.375000", "102800.375000", "102800.375000", "102800.375000", "102800.375000", "102800.390000", "102800.390000", "102800.390000", "102800.390000", "102800.390000", "102800.390000", "102800.390000", "102800.390000", "102800.406000", "102800.406000", "102800.406000", "102800.406000", "102800.406000", "102820.375000", "102820.375000", "102820.375000", "102820.375000", "102820.375000", "102820.375000", "102820.375000", "102820.390000", "102820.390000", "102820.390000", "102900.375000", "102900.375000", "102900.375000", "102900.390000", "102900.390000", "102900.390000", "102900.390000", "102900.390000", "102900.390000", "102900.406000", "102900.421000", "102900.421000", "102900.437000", "102900.437000", "102900.437000", "102900.437000", "102900.453000", "102900.453000", "102900.453000", "102900.453000", "102940.375000", "102940.375000", "102940.375000", "102940.375000", "102940.390000", "102940.390000", "102940.390000", "102940.390000", "102940.390000", "102940.390000", "102940.390000", "102940.406000", "102940.406000", "102940.406000", "102940.406000", "102940.421000", "102940.421000", "102940.421000", "102940.421000", "102940.421000", "103020.375000", "103020.375000", "103020.375000", "103020.375000", "103020.375000", "103020.375000", "103020.390000", "103020.390000", "103020.390000", "103020.390000", "103020.390000", "103020.390000", "103020.390000", "103020.406000", "103020.406000", "103020.406000", "103020.406000", "103020.406000", "103020.406000", "103020.406000", "103100.375000", "103100.375000", "103100.375000", "103100.375000", "103100.375000", "103100.375000", "103100.375000", "103100.390000", "103100.390000", "103100.390000", "103100.390000", "103100.390000", "103100.390000", "103100.390000", "103100.390000", "103100.406000", "103100.406000", "103100.406000", "103100.406000", "103100.421000", "103140.375000", "103140.375000", "103140.375000", "103140.375000", "103140.375000", "103140.375000", "103140.375000", "103140.390000", "103140.390000", "103140.390000", "103140.390000", "103140.406000", "103140.406000", "103140.406000", "103140.406000", "103140.406000", "103140.406000", "103140.406000", "103140.406000", "103140.421000", "103220.375000", "103220.375000", "103220.375000", "103220.375000", "103220.375000", "103220.375000", "103220.375000", "103220.390000", "103220.390000", "103220.390000", "103220.390000", "103220.390000", "103220.390000", "103220.390000", "103220.390000", "103220.406000", "103220.406000", "103220.406000", "103220.406000", "103220.406000", "103300.375000", "103300.375000", "103300.375000", "103300.375000", "103300.375000", "103300.375000", "103300.375000", "103300.390000", "103300.390000", "103300.390000", "103300.390000", "103300.390000", "103300.390000", "103300.390000", "103300.390000", "103300.406000", "103300.406000", "103300.406000", "103300.406000", "103300.406000", "103306.718000", "103306.734000", "103306.734000", "103306.734000"],
      "InstanceCreationTime": ["102400.390000", "102400.390000", "102400.390000", "102400.390000", "102400.390000", "102400.406000", "102400.406000", "102400.406000", "102400.406000", "102400.406000", "102400.406000", "102400.406000", "102400.421000", "102400.421000", "102400.421000", "102400.421000", "102400.421000", "102400.421000", "102400.437000", "102400.437000", "102400.437000", "102400.437000", "102400.437000", "102400.437000", "102400.437000", "102400.453000", "102440.375000", "102440.375000", "102440.375000", "102440.375000", "102440.375000", "102440.375000", "102440.375000", "102440.390000", "102440.390000", "102440.406000", "102440.406000", "102440.406000", "102440.406000", "102440.406000", "102440.406000", "102440.406000", "102440.421000", "102440.421000", "102440.421000", "102440.421000", "102520.375000", "102520.375000", "102520.375000", "102520.375000", "102520.375000", "102520.375000", "102520.375000", "102520.390000", "102520.390000", "102520.390000", "102520.390000", "102520.390000", "102520.390000", "102520.390000", "102520.390000", "102520.406000", "102520.406000", "102520.406000", "102520.406000", "102520.406000", "102600.375000", "102600.375000", "102600.375000", "102600.375000", "102600.375000", "102600.375000", "102600.375000", "102600.390000", "102600.390000", "102600.390000", "102600.390000", "102600.390000", "102600.406000", "102600.406000", "102600.406000", "102600.406000", "102600.406000", "102600.406000", "102600.421000", "102600.421000", "102640.375000", "102640.375000", "102640.375000", "102640.375000", "102640.375000", "102640.375000", "102640.375000", "102640.390000", "102640.390000", "102640.390000", "102640.390000", "102640.390000", "102640.390000", "102640.390000", "102640.390000", "102640.406000", "102640.406000", "102640.406000", "102640.406000", "102640.406000", "102720.375000", "102720.375000", "102720.375000", "102720.375000", "102720.375000", "102720.375000", "102720.375000", "102720.390000", "102720.390000", "102720.390000", "102720.390000", "102720.390000", "102720.390000", "102720.390000", "102720.390000", "102720.406000", "102720.406000", "102720.406000", "102720.406000", "102720.406000", "102800.375000", "102800.375000", "102800.375000", "102800.375000", "102800.375000", "102800.375000", "102800.375000", "102800.390000", "102800.390000", "102800.390000", "102800.390000", "102800.390000", "102800.390000", "102800.390000", "102800.390000", "102800.406000", "102800.406000", "102800.406000", "102800.406000", "102800.406000", "102820.375000", "102820.375000", "102820.375000", "102820.375000", "102820.375000", "102820.375000", "102820.375000", "102820.390000", "102820.390000", "102820.390000", "102900.375000", "102900.375000", "102900.375000", "102900.390000", "102900.390000", "102900.390000", "102900.390000", "102900.390000", "102900.390000", "102900.406000", "102900.421000", "102900.421000", "102900.437000", "102900.437000", "102900.437000", "102900.437000", "102900.453000", "102900.453000", "102900.453000", "102900.453000", "102940.375000", "102940.375000", "102940.375000", "102940.375000", "102940.390000", "102940.390000", "102940.390000", "102940.390000", "102940.390000", "102940.390000", "102940.390000", "102940.406000", "102940.406000", "102940.406000", "102940.406000", "102940.421000", "102940.421000", "102940.421000", "102940.421000", "102940.421000", "103020.375000", "103020.375000", "103020.375000", "103020.375000", "103020.375000", "103020.375000", "103020.390000", "103020.390000", "103020.390000", "103020.390000", "103020.390000", "103020.390000", "103020.390000", "103020.406000", "103020.406000", "103020.406000", "103020.406000", "103020.406000", "103020.406000", "103020.406000", "103100.375000", "103100.375000", "103100.375000", "103100.375000", "103100.375000", "103100.375000", "103100.375000", "103100.390000", "103100.390000", "103100.390000", "103100.390000", "103100.390000", "103100.390000", "103100.390000", "103100.390000", "103100.406000", "103100.406000", "103100.406000", "103100.406000", "103100.421000", "103140.375000", "103140.375000", "103140.375000", "103140.375000", "103140.375000", "103140.375000", "103140.375000", "103140.390000", "103140.390000", "103140.390000", "103140.390000", "103140.406000", "103140.406000", "103140.406000", "103140.406000", "103140.406000", "103140.406000", "103140.406000", "103140.406000", "103140.421000", "103220.375000", "103220.375000", "103220.375000", "103220.375000", "103220.375000", "103220.375000", "103220.375000", "103220.390000", "103220.390000", "103220.390000", "103220.390000", "103220.390000", "103220.390000", "103220.390000", "103220.390000", "103220.406000", "103220.406000", "103220.406000", "103220.406000", "103220.406000", "103300.375000", "103300.375000", "103300.375000", "103300.375000", "103300.375000", "103300.375000", "103300.375000", "103300.390000", "103300.390000", "103300.390000", "103300.390000", "103300.390000", "103300.390000", "103300.390000", "103300.390000", "103300.406000", "103300.406000", "103300.406000", "103300.406000", "103300.406000", "103306.718000", "103306.734000", "103306.734000", "103306.734000"],
      "InstanceNumber": [1, 2, 3, 4, 5, 6, 7, 8, 9, 10, 11, 12, 13, 14, 15, 16, 17, 18, 19, 20, 21, 22, 23, 24, 25, 26, 27, 28, 29, 30, 31, 32, 33, 34, 35, 36, 37, 38, 39, 40, 41, 42, 43, 44, 45, 46, 47, 48, 49, 50, 51, 52, 53, 54, 55, 56, 57, 58, 59, 60, 61, 62, 63, 64, 65, 66, 67, 68, 69, 70, 71, 72, 73, 74, 75, 76, 77, 78, 79, 80, 81, 82, 83, 84, 85, 86, 87, 88, 89, 90, 91, 92, 93, 94, 95, 96, 97, 98, 99, 100, 101, 102, 103, 104, 105, 106, 107, 108, 109, 110, 111, 112, 113, 114, 115, 116, 117, 118, 119, 120, 121, 122, 123, 124, 125, 126, 127, 128, 129, 130, 131, 132, 133, 134, 135, 136, 137, 138, 139, 140, 141, 142, 143, 144, 145, 146, 147, 148, 149, 150, 151, 152, 153, 154, 155, 156, 157, 158, 159, 160, 161, 162, 163, 164, 165, 166, 167, 168, 169, 170, 171, 172, 173, 174, 175, 176, 177, 178, 179, 180, 181, 182, 183, 184, 185, 186, 187, 188, 189, 190, 191, 192, 193, 194, 195, 196, 197, 198, 199, 200, 201, 202, 203, 204, 205, 206, 207, 208, 209, 210, 211, 212, 213, 214, 215, 216, 217, 218, 219, 220, 221, 222, 223, 224, 225, 226, 227, 228, 229, 230, 231, 232, 233, 234, 235, 236, 237, 238, 239, 240, 241, 242, 243, 244, 245, 246, 247, 248, 249, 250, 251, 252, 253, 254, 255, 256, 257, 258, 259, 260, 261, 262, 263, 264, 265, 266, 267, 268, 269, 270, 271, 272, 273, 274, 275, 276, 277, 278, 279, 280, 281, 282, 283, 284, 285, 286, 287, 288, 289, 290, 291, 292, 293, 294, 295, 296, 297, 298, 299, 300],
      "LargestImagePixelValue": [1381, 1571, 1757, 1568, 1680, 1724, 1637, 1763, 1585, 1382, 1619, 1648, 1613, 1806, 1436, 1447, 1753, 1537, 1994, 1431, 1767, 1536, 1580, 1623, 1758, 1485, 1438, 1618, 1561, 1713, 1475, 1522, 1644, 1612, 1568, 1647, 1828, 1417, 1657, 1728, 1407, 1407, 1717, 1825, 1915, 1407, 1488, 1704, 1364, 1505, 1426, 1768, 1749, 1937, 1590, 1916, 1457, 1661, 1824, 1454, 1467, 1529, 1458, 1923, 1434, 1468, 1399, 1669, 2019, 1528, 1592, 1645, 1668, 1431, 1595, 1580, 1440, 1630, 1508, 1659, 1883, 1556, 1570, 1766, 1440, 1772, 1867, 1420, 1805, 1702, 1449, 1997, 1506, 1453, 1780, 1430, 1523, 1648, 1666, 1655, 1836, 1751, 1494, 1437, 1806, 1706, 1453, 1525, 1629, 1529, 1793, 1397, 1666, 1608, 1466, 1872, 1921, 1685, 1639, 1398, 1504, 1896, 1443, 1763, 1630, 1843, 1430, 1743, 1819, 1391, 1650, 1822, 1883, 1490, 1808, 1861, 1435, 1669, 1532, 1611, 1983, 2061, 1865, 1420, 1496, 1591, 1802, 1402, 1697, 1731, 1789, 1946, 1751, 1435, 1834, 1536, 2130, 1625, 1961, 1827, 2002, 1832, 1421, 1496, 1639, 1430, 1479, 1626, 2009, 1993, 1551, 1412, 1975, 1897, 1684, 1589, 1796, 2072, 1384, 1829, 1967, 1918, 1909, 1701, 1777, 1466, 1769, 1692, 2076, 1613, 1600, 1748, 1967, 1563, 1556, 1577, 1668, 1564, 2068, 1855, 1933, 1464, 1826, 2290, 1649, 1951, 2001, 1461, 1798, 1443, 1591, 2090, 1786, 1993, 1717, 1835, 1894, 1531, 1678, 1969, 1441, 2043, 1437, 2211, 1774, 1843, 1745, 2132, 2040, 1458, 1589, 1702, 1920, 1412, 1679, 1961, 1885, 1544, 2015, 2016, 1579, 1672, 1924, 1893, 2090, 2181, 1671, 1644, 1709, 1726, 1454, 1790, 1444, 1687, 2194, 2094, 2085, 1900, 1841, 1429, 1665, 1935, 1843, 1576, 1446, 1521, 1443, 1582, 1776, 1958, 1945, 1400, 1832, 1804, 1955, 2045, 1860, 1429, 1499, 1841, 1826, 1855, 1398, 1616, 1869, 1722, 1781, 1626, 2362, 1633, 2096, 1912, 2031, 1787, 1833, 1792, 1380, 1830, 1718, 1586],
      "WindowCenter": [580.0, 580.0, 579.0, 576.0, 576.0, 575.0, 575.0, 576.0, 575.0, 574.0, 576.0, 575.0, 575.0, 577.0, 575.0, 575.0, 577.0, 574.0, 578.0, 577.0, 580.0, 576.0, 576.0, 574.0, 575.0, 574.0, 574.0, 576.0, 574.0, 577.0, 576.0, 577.0, 577.0, 577.0, 578.0, 578.0, 579.0, 575.0, 578.0, 578.0, 576.0, 578.0, 581.0, 580.0, 579.0, 574.0, 575.0, 578.0, 575.0, 578.0, 578.0, 583.0, 581.0, 581.0, 578.0, 579.0, 575.0, 576.0, 577.0, 574.0, 577.0, 579.0, 580.0, 582.0, 579.0, 579.0, 579.0, 584.0, 584.0, 579.0, 576.0, 575.0, 576.0, 575.0, 578.0, 578.0, 578.0, 581.0, 581.0, 583.0, 585.0, 581.0, 581.0, 582.0, 581.0, 583.0, 583.0, 581.0, 583.0, 582.0, 581.0, 585.0, 579.0, 578.0, 580.0, 577.0, 578.0, 583.0, 580.0, 577.0, 577.0, 576.0, 575.0, 577.0, 582.0, 580.0, 580.0, 582.0, 583.0, 582.0, 583.0, 581.0, 584.0, 583.0, 584.0, 587.0, 586.0, 583.0, 582.0, 581.0, 583.0, 584.0, 581.0, 582.0, 580.0, 582.0, 579.0, 583.0, 583.0, 580.0, 583.0, 584.0, 585.0, 582.0, 585.0, 585.0, 581.0, 584.0, 586.0, 584.0, 585.0, 582.0, 579.0, 575.0, 577.0, 580.0, 582.0, 581.0, 584.0, 584.0, 583.0, 585.0, 585.0, 583.0, 587.0, 586.0, 590.0, 584.0, 584.0, 581.0, 582.0, 580.0, 578.0, 580.0, 582.0, 582.0, 584.0, 585.0, 588.0, 587.0, 584.0, 582.0, 588.0, 587.0, 585.0, 584.0, 587.0, 587.0, 581.0, 588.0, 589.0, 587.0, 584.0, 583.0, 584.0, 581.0, 582.0, 581.0, 584.0, 580.0, 581.0, 582.0, 583.0, 580.0, 581.0, 583.0, 585.0, 586.0, 588.0, 587.0, 587.0, 585.0, 587.0, 589.0, 583.0, 583.0, 583.0, 579.0, 584.0, 585.0, 586.0, 590.0, 586.0, 586.0, 582.0, 582.0, 583.0, 583.0, 586.0, 588.0, 585.0, 590.0, 586.0, 591.0, 586.0, 588.0, 585.0, 585.0, 583.0, 579.0, 580.0, 583.0, 586.0, 583.0, 587.0, 590.0, 587.0, 585.0, 588.0, 588.0, 585.0, 586.0, 591.0, 589.0, 587.0, 585.0, 580.0, 580.0, 580.0, 581.0, 581.0, 587.0, 586.0, 591.0, 591.0, 588.0, 585.0, 582.0, 583.0, 580.0, 584.0, 589.0, 587.0, 585.0, 584.0, 585.0, 587.0, 588.0, 590.0, 590.0, 589.0, 586.0, 590.0, 589.0, 589.0, 590.0, 588.0, 583.0, 585.0, 588.0, 588.0, 587.0, 584.0, 587.0, 588.0, 587.0, 588.0, 587.0, 590.0, 586.0, 588.0, 585.0, 583.0, 581.0, 582.0, 582.0, 581.0, 588.0, 588.0, 586.0],
      "WindowWidth": [1218.0, 1219.0, 1214.0, 1208.0, 1209.0, 1207.0, 1206.0, 1209.0, 1206.0, 1205.0, 1210.0, 1207.0, 1208.0, 1211.0, 1207.0, 1208.0, 1210.0, 1206.0, 1213.0, 1212.0, 1217.0, 1210.0, 1208.0, 1204.0, 1206.0, 1204.0, 1205.0, 1208.0, 1205.0, 1210.0, 1209.0, 1211.0, 1210.0, 1212.0, 1213.0, 1214.0, 1215.0, 1209.0, 1213.0, 1213.0, 1209.0, 1214.0, 1221.0, 1217.0, 1216.0, 1207.0, 1206.0, 1213.0, 1208.0, 1215.0, 1215.0, 1225.0, 1218.0, 1219.0, 1214.0, 1214.0, 1208.0, 1209.0, 1210.0, 1205.0, 1211.0, 1215.0, 1217.0, 1221.0, 1217.0, 1216.0, 1217.0, 1227.0, 1227.0, 1215.0, 1210.0, 1206.0, 1208.0, 1208.0, 1212.0, 1214.0, 1215.0, 1219.0, 1220.0, 1225.0, 1229.0, 1219.0, 1219.0, 1221.0, 1221.0, 1223.0, 1224.0, 1220.0, 1223.0, 1223.0, 1220.0, 1228.0, 1217.0, 1214.0, 1219.0, 1213.0, 1213.0, 1225.0, 1218.0, 1212.0, 1211.0, 1208.0, 1208.0, 1212.0, 1221.0, 1219.0, 1217.0, 1222.0, 1225.0, 1222.0, 1225.0, 1222.0, 1226.0, 1225.0, 1227.0, 1232.0, 1230.0, 1224.0, 1224.0, 1222.0, 1224.0, 1226.0, 1220.0, 1221.0, 1218.0, 1221.0, 1216.0, 1225.0, 1224.0, 1218.0, 1225.0, 1226.0, 1229.0, 1223.0, 1228.0, 1228.0, 1220.0, 1228.0, 1230.0, 1226.0, 1228.0, 1223.0, 1216.0, 1208.0, 1212.0, 1217.0, 1222.0, 1221.0, 1225.0, 1226.0, 1224.0, 1229.0, 1229.0, 1224.0, 1232.0, 1231.0, 1239.0, 1226.0, 1226.0, 1220.0, 1221.0, 1218.0, 1215.0, 1219.0, 1221.0, 1224.0, 1228.0, 1230.0, 1234.0, 1232.0, 1226.0, 1223.0, 1235.0, 1233.0, 1228.0, 1227.0, 1232.0, 1232.0, 1222.0, 1235.0, 1236.0, 1232.0, 1227.0, 1224.0, 1226.0, 1221.0, 1222.0, 1221.0, 1225.0, 1219.0, 1220.0, 1221.0, 1223.0, 1219.0, 1220.0, 1224.0, 1228.0, 1232.0, 1236.0, 1232.0, 1232.0, 1228.0, 1233.0, 1238.0, 1225.0, 1224.0, 1224.0, 1216.0, 1226.0, 1230.0, 1232.0, 1238.0, 1231.0, 1229.0, 1221.0, 1222.0, 1225.0, 1224.0, 1231.0, 1236.0, 1230.0, 1239.0, 1231.0, 1240.0, 1232.0, 1235.0, 1228.0, 1228.0, 1224.0, 1216.0, 1219.0, 1224.0, 1231.0, 1226.0, 1232.0, 1238.0, 1234.0, 1229.0, 1234.0, 1235.0, 1228.0, 1230.0, 1241.0, 1236.0, 1232.0, 1228.0, 1219.0, 1218.0, 1217.0, 1220.0, 1220.0, 1232.0, 1232.0, 1241.0, 1242.0, 1234.0, 1227.0, 1221.0, 1223.0, 1219.0, 1228.0, 1236.0, 1234.0, 1230.0, 1228.0, 1229.0, 1234.0, 1236.0, 1239.0, 1238.0, 1237.0, 1233.0, 1240.0, 1237.0, 1237.0, 1239.0, 1235.0, 1227.0, 1229.0, 1235.0, 1234.0, 1234.0, 1227.0, 1234.0, 1234.0, 1232.0, 1235.0, 1233.0, 1238.0, 1231.0, 1234.0, 1228.0, 1223.0, 1219.0, 1221.0, 1223.0, 1222.0, 1236.0, 1236.0, 1232.0]
    },
    "slices": {}
  }
}