{
  "AcquisitionMatrixPE": 74,
  "AcquisitionNumber": 1,
  "AcquisitionTime": "14:21:14.767500",
  "BandwidthPerPixelPhaseEncode": 27.579,
  "BaseResolution": 74,
  "BodyPartExamined": "HEAD",
  "CoilString": "t:HEA;HEP",
  "ConversionSoftware": "dcm2niix",
  "ConversionSoftwareVersion": "v1.0.20190410  GCC6.3.0",
  "DerivedVendorReportedEchoSpacing": 0.000489993,
  "DeviceSerialNumber": "35256",
  "DwellTime": 2.4e-06,
  "EchoTime": 0.03,
  "EffectiveEchoSpacing": 0.000489993,
  "FlipAngle": 70,
  "ImageOrientationPatientDICOM": [1, 0, 0, 0, 1, 0],
  "ImageType": [
    "ORIGINAL",
    "PRIMARY",
    "M",
    "ND",
    "NORM",
    "MOSAIC"
],
  "ImagingFrequency": 123.223,
  "InPlanePhaseEncodingDirectionDICOM": "COL",
  "InstitutionAddress": "East_Lee_St._2907_Greensboro_NC_US_27401",
  "InstitutionName": "JSNN",
  "InstitutionalDepartmentName": "Department",
  "MRAcquisitionType": "2D",
  "MagneticFieldStrength": 3,
  "Manufacturer": "Siemens",
  "ManufacturersModelName": "TrioTim",
  "Modality": "MR",
  "PartialFourier": 1,
  "PatientPosition": "HFS",
  "PercentPhaseFOV": 100,
  "PhaseEncodingDirection": "j-",
  "PhaseEncodingSteps": 74,
  "PhaseResolution": 1,
  "PixelBandwidth": 2815,
  "ProcedureStepDescription": "head_Cassidy",
  "ProtocolName": "RestingState",
  "PulseSequenceDetails": "%SiemensSeq%_ep2d_bold",
  "ReceiveCoilName": "HeadMatrix",
  "ReconMatrixPE": 74,
  "RepetitionTime": 2,
  "SAR": 0.100283,
  "ScanOptions": "FS",
  "ScanningSequence": "EP",
  "SequenceName": "_epfid2d1_74",
  "SequenceVariant": "SK",
  "SeriesDescription": "RestingState",
  "SeriesNumber": 3,
  "ShimSetting": [1349, 10583, -8683, 580, 34, 48, -61, 46],
  "SliceThickness": 4,
  "SliceTiming": [1.945, 1.8825, 1.82, 1.7575, 1.6925, 1.63, 1.5675, 1.505, 1.4425, 1.38, 1.3175, 1.255, 1.1925, 1.13, 1.0675, 1.0025, 0.94, 0.8775, 0.815, 0.7525, 0.69, 0.6275, 0.565, 0.5025, 0.44, 0.3775, 0.3125, 0.25, 0.1875, 0.125, 0.0625, 0],
  "SoftwareVersions": "syngo_MR_B19",
  "SpacingBetweenSlices": 4,
  "StationName": "JSNNMRI",
  "TaskName": "rest",
  "TotalReadoutTime": 0.0357695,
  "TxRefAmp": 234.09,
  "dcmmeta_affine": [
    [-2.972972869873047, 0.0, 0.0, 105.18071746826172],
    [0.0, 2.972972869873047, 0.0, -88.93728637695312],
    [0.0, 0.0, 4.0, -42.22515106201172],
    [0.0, 0.0, 0.0, 1.0]
],
  "dcmmeta_reorient_transform": [
    [0.0, -1.0, 0.0, 73.0],
    [1.0, 0.0, 0.0, 0.0],
    [0.0, 0.0, 1.0, 0.0],
    [0.0, 0.0, 0.0, 1.0]
],
  "dcmmeta_shape": [74, 74, 32, 300],
  "dcmmeta_slice_dim": 2,
  "dcmmeta_version": 0.6,
  "global": {
    "const": {
      "AcquisitionMatrix": [74, 0, 0, 74],
      "AngioFlag": "N",
      "BitsAllocated": 16,
      "BitsStored": 12,
      "BodyPartExamined": "HEAD",
      "Columns": 444,
      "EchoNumbers": 1,
      "EchoTime": 30.0,
      "EchoTrainLength": 1,
      "FlipAngle": 70.0,
      "HighBit": 11,
      "ImageOrientationPatient": [1.0, 0.0, 0.0, 0.0, 1.0, 0.0],
      "ImagePositionPatient": [-655.18069982529, -678.08971214294, -42.225151062012],
      "ImageType": [
        "ORIGINAL",
        "PRIMARY",
        "M",
        "ND",
        "NORM",
        "MOSAIC"
],
      "ImagedNucleus": "1H",
      "ImagingFrequency": 123.2231,
      "InPlanePhaseEncodingDirection": "COL",
      "MRAcquisitionType": "2D",
      "MagneticFieldStrength": 3.0,
      "Manufacturer": "SIEMENS",
      "ManufacturerModelName": "TrioTim",
      "Modality": "MR",
      "NumberOfAverages": 1.0,
      "NumberOfPhaseEncodingSteps": 74,
      "PercentPhaseFieldOfView": 100.0,
      "PercentSampling": 100.0,
      "PerformedProcedureStepStartTime": "134156.781000",
      "PhotometricInterpretation": "MONOCHROME2",
      "PixelBandwidth": 2815.0,
      "PixelRepresentation": 0,
      "PixelSpacing": [2.972972869873, 2.972972869873],
      "ProtocolName": "RestingState",
      "RepetitionTime": 2000.0,
      "Rows": 444,
      "SAR": 0.10028334048479,
      "SamplesPerPixel": 1,
      "ScanOptions": "FS",
      "ScanningSequence": "EP",
      "SequenceName": "*epfid2d1_74",
      "SequenceVariant": "SK",
      "SeriesDescription": "RestingState",
      "SeriesNumber": 3,
      "SeriesTime": "142159.656000",
      "SliceLocation": -42.225151062012,
      "SliceThickness": 4.0,
      "SmallestImagePixelValue": 0,
      "SoftwareVersions": "syngo MR B19",
      "SpacingBetweenSlices": 4.0,
      "SpecificCharacterSet": "ISO_IR 100",
      "StudyID": "1",
      "StudyTime": "134156.703000",
      "TransmitCoilName": "Body",
      "VariableFlipAngleFlag": "N",
      "WindowCenterWidthExplanation": "Algo1",
      "dBdt": 0.0},
    "slices": {}
  },
  "time": {
    "samples": {
      "AcquisitionNumber": [1, 2, 3, 4, 5, 6, 7, 8, 9, 10, 11, 12, 13, 14, 15, 16, 17, 18, 19, 20, 21, 22, 23, 24, 25, 26, 27, 28, 29, 30, 31, 32, 33, 34, 35, 36, 37, 38, 39, 40, 41, 42, 43, 44, 45, 46, 47, 48, 49, 50, 51, 52, 53, 54, 55, 56, 57, 58, 59, 60, 61, 62, 63, 64, 65, 66, 67, 68, 69, 70, 71, 72, 73, 74, 75, 76, 77, 78, 79, 80, 81, 82, 83, 84, 85, 86, 87, 88, 89, 90, 91, 92, 93, 94, 95, 96, 97, 98, 99, 100, 101, 102, 103, 104, 105, 106, 107, 108, 109, 110, 111, 112, 113, 114, 115, 116, 117, 118, 119, 120, 121, 122, 123, 124, 125, 126, 127, 128, 129, 130, 131, 132, 133, 134, 135, 136, 137, 138, 139, 140, 141, 142, 143, 144, 145, 146, 147, 148, 149, 150, 151, 152, 153, 154, 155, 156, 157, 158, 159, 160, 161, 162, 163, 164, 165, 166, 167, 168, 169, 170, 171, 172, 173, 174, 175, 176, 177, 178, 179, 180, 181, 182, 183, 184, 185, 186, 187, 188, 189, 190, 191, 192, 193, 194, 195, 196, 197, 198, 199, 200, 201, 202, 203, 204, 205, 206, 207, 208, 209, 210, 211, 212, 213, 214, 215, 216, 217, 218, 219, 220, 221, 222, 223, 224, 225, 226, 227, 228, 229, 230, 231, 232, 233, 234, 235, 236, 237, 238, 239, 240, 241, 242, 243, 244, 245, 246, 247, 248, 249, 250, 251, 252, 253, 254, 255, 256, 257, 258, 259, 260, 261, 262, 263, 264, 265, 266, 267, 268, 269, 270, 271, 272, 273, 274, 275, 276, 277, 278, 279, 280, 281, 282, 283, 284, 285, 286, 287, 288, 289, 290, 291, 292, 293, 294, 295, 296, 297, 298, 299, 300],
      "AcquisitionTime": ["142114.767500", "142116.775000", "142118.782500", "142120.790000", "142122.800000", "142124.807500", "142126.815000", "142128.822500", "142130.832500", "142132.840000", "142134.847500", "142136.855000", "142138.862500", "142140.872500", "142142.880000", "142144.887500", "142146.895000", "142148.902500", "142150.912500", "142152.920000", "142154.927500", "142156.935000", "142158.945000", "142200.952500", "142202.960000", "142204.967500", "142206.975000", "142208.985000", "142210.992500", "142213.000000", "142215.007500", "142217.015000", "142219.025000", "142221.032500", "142223.040000", "142225.047500", "142227.057500", "142229.065000", "142231.072500", "142233.080000", "142235.087500", "142237.097500", "142239.105000", "142241.112500", "142243.120000", "142245.127500", "142247.137500", "142249.145000", "142251.152500", "142253.160000", "142255.167500", "142257.177500", "142259.185000", "142301.192500", "142303.200000", "142305.210000", "142307.217500", "142309.225000", "142311.232500", "142313.240000", "142315.250000", "142317.257500", "142319.265000", "142321.272500", "142323.280000", "142325.290000", "142327.297500", "142329.305000", "142331.312500", "142333.322500", "142335.330000", "142337.337500", "142339.345000", "142341.352500", "142343.362500", "142345.370000", "142347.377500", "142349.385000", "142351.392500", "142353.402500", "142355.410000", "142357.417500", "142359.425000", "142401.435000", "142403.442500", "142405.450000", "142407.457500", "142409.465000", "142411.475000", "142413.482500", "142415.490000", "142417.497500", "142419.505000", "142421.515000", "142423.522500", "142425.530000", "142427.537500", "142429.545000", "142431.555000", "142433.562500", "142435.570000", "142437.577500", "142439.587500", "142441.595000", "142443.602500", "142445.610000", "142447.617500", "142449.627500", "142451.635000", "142453.642500", "142455.650000", "142457.657500", "142459.667500", "142501.675000", "142503.682500", "142505.690000", "142507.700000", "142509.707500", "142511.715000", "142513.722500", "142515.730000", "142517.740000", "142519.747500", "142521.755000", "142523.762500", "142525.770000", "142527.780000", "142529.787500", "142531.795000", "142533.802500", "142535.812500", "142537.820000", "142539.827500", "142541.835000", "142543.842500", "142545.852500", "142547.860000", "142549.867500", "142551.875000", "142553.882500", "142555.892500", "142557.900000", "142559.907500", "142601.915000", "142603.922500", "142605.932500", "142607.940000", "142609.947500", "142611.955000", "142613.965000", "142615.972500", "142617.980000", "142619.987500", "142621.995000", "142624.005000", "142626.012500", "142628.020000", "142630.027500", "142632.035000", "142634.045000", "142636.052500", "142638.060000", "142640.067500", "142642.077500", "142644.085000", "142646.092500", "142648.100000", "142650.107500", "142652.117500", "142654.125000", "142656.132500", "142658.140000", "142700.147500", "142702.157500", "142704.165000", "142706.172500", "142708.180000", "142710.190000", "142712.197500", "142714.205000", "142716.212500", "142718.220000", "142720.230000", "142722.237500", "142724.245000", "142726.252500", "142728.260000", "142730.270000", "142732.277500", "142734.285000", "142736.292500", "142738.302500", "142740.310000", "142742.317500", "142744.325000", "142746.332500", "142748.342500", "142750.350000", "142752.357500", "142754.365000", "142756.372500", "142758.382500", "142800.390000", "142802.397500", "142804.405000", "142806.412500", "142808.422500", "142810.430000", "142812.437500", "142814.445000", "142816.455000", "142818.462500", "142820.470000", "142822.477500", "142824.485000", "142826.495000", "142828.502500", "142830.510000", "142832.517500", "142834.525000", "142836.535000", "142838.542500", "142840.550000", "142842.557500", "142844.567500", "142846.575000", "142848.582500", "142850.590000", "142852.597500", "142854.607500", "142856.615000", "142858.622500", "142900.630000", "142902.637500", "142904.647500", "142906.655000", "142908.662500", "142910.670000", "142912.680000", "142914.687500", "142916.695000", "142918.702500", "142920.710000", "142922.720000", "142924.727500", "142926.735000", "142928.742500", "142930.750000", "142932.760000", "142934.767500", "142936.775000", "142938.782500", "142940.790000", "142942.800000", "142944.807500", "142946.815000", "142948.822500", "142950.832500", "142952.840000", "142954.847500", "142956.855000", "142958.862500", "143000.872500", "143002.880000", "143004.887500", "143006.895000", "143008.902500", "143010.912500", "143012.920000", "143014.927500", "143016.935000", "143018.945000", "143020.952500", "143022.960000", "143024.967500", "143026.975000", "143028.985000", "143030.992500", "143033.000000", "143035.007500", "143037.015000", "143039.025000", "143041.032500", "143043.040000", "143045.047500", "143047.057500", "143049.065000", "143051.072500", "143053.080000", "143055.087500", "143057.097500", "143059.105000", "143101.112500", "143103.120000", "143105.127500", "143107.137500", "143109.145000", "143111.152500", "143113.160000", "143115.167500"],
      "ContentTime": ["142159.687000", "142159.687000", "142159.687000", "142159.687000", "142159.687000", "142159.703000", "142159.703000", "142159.703000", "142159.718000", "142159.718000", "142159.718000", "142159.718000", "142159.718000", "142159.718000", "142159.718000", "142159.734000", "142159.734000", "142159.734000", "142159.734000", "142159.734000", "142159.750000", "142159.750000", "142239.656000", "142239.656000", "142239.656000", "142239.656000", "142239.671000", "142239.671000", "142239.671000", "142239.671000", "142239.687000", "142239.687000", "142239.687000", "142239.687000", "142239.687000", "142239.687000", "142239.703000", "142239.703000", "142239.703000", "142239.703000", "142239.703000", "142239.703000", "142319.656000", "142319.656000", "142319.656000", "142319.671000", "142319.671000", "142319.671000", "142319.671000", "142319.671000", "142319.671000", "142319.687000", "142319.687000", "142319.687000", "142319.687000", "142319.687000", "142319.687000", "142319.687000", "142319.687000", "142319.703000", "142319.703000", "142319.703000", "142359.656000", "142359.656000", "142359.656000", "142359.671000", "142359.671000", "142359.671000", "142359.671000", "142359.671000", "142359.687000", "142359.687000", "142359.687000", "142359.687000", "142359.687000", "142359.687000", "142359.687000", "142359.687000", "142359.703000", "142359.703000", "142359.703000", "142359.703000", "142439.656000", "142439.656000", "142439.656000", "142439.656000", "142439.671000", "142439.671000", "142439.671000", "142439.671000", "142439.671000", "142439.687000", "142439.687000", "142439.687000", "142439.687000", "142439.687000", "142439.687000", "142439.687000", "142439.687000", "142439.703000", "142439.703000", "142439.703000", "142519.656000", "142519.656000", "142519.656000", "142519.656000", "142519.671000", "142519.671000", "142519.671000", "142519.671000", "142519.671000", "142519.671000", "142519.671000", "142519.687000", "142519.687000", "142519.687000", "142519.687000", "142519.687000", "142519.687000", "142519.687000", "142519.687000", "142519.703000", "142559.656000", "142559.656000", "142559.656000", "142559.671000", "142559.671000", "142559.671000", "142559.671000", "142559.671000", "142559.687000", "142559.687000", "142559.687000", "142559.687000", "142559.687000", "142559.687000", "142559.687000", "142559.687000", "142559.703000", "142559.703000", "142559.703000", "142559.703000", "142639.656000", "142639.656000", "142639.656000", "142639.656000", "142639.671000", "142639.671000", "142639.671000", "142639.671000", "142639.687000", "142639.687000", "142639.687000", "142639.687000", "142639.687000", "142639.703000", "142639.703000", "142639.703000", "142639.703000", "142639.703000", "142639.703000", "142639.718000", "142719.656000", "142719.656000", "142719.656000", "142719.656000", "142719.671000", "142719.671000", "142719.687000", "142719.687000", "142719.687000", "142719.687000", "142719.687000", "142719.687000", "142719.687000", "142719.703000", "142719.703000", "142719.703000", "142719.703000", "142719.703000", "142719.703000", "142719.718000", "142759.656000", "142759.656000", "142759.656000", "142759.671000", "142759.671000", "142759.671000", "142759.671000", "142759.671000", "142759.671000", "142759.687000", "142759.687000", "142759.687000", "142759.687000", "142759.687000", "142759.687000", "142759.703000", "142759.703000", "142759.703000", "142759.703000", "142759.703000", "142839.656000", "142839.656000", "142839.656000", "142839.671000", "142839.671000", "142839.671000", "142839.671000", "142839.671000", "142839.671000", "142839.671000", "142839.671000", "142839.687000", "142839.687000", "142839.687000", "142839.687000", "142839.687000", "142839.687000", "142839.687000", "142839.703000", "142839.703000", "142919.656000", "142919.656000", "142919.656000", "142919.656000", "142919.671000", "142919.671000", "142919.671000", "142919.671000", "142919.671000", "142919.671000", "142919.671000", "142919.687000", "142919.687000", "142919.687000", "142919.687000", "142919.687000", "142919.687000", "142919.687000", "142919.687000", "142919.703000", "142959.656000", "142959.656000", "142959.656000", "142959.656000", "142959.671000", "142959.671000", "142959.671000", "142959.671000", "142959.671000", "142959.671000", "142959.671000", "142959.687000", "142959.687000", "142959.687000", "142959.687000", "142959.687000", "142959.687000", "142959.687000", "142959.703000", "142959.703000", "143039.656000", "143039.656000", "143039.656000", "143039.656000", "143039.671000", "143039.671000", "143039.671000", "143039.671000", "143039.687000", "143039.687000", "143039.687000", "143039.687000", "143039.687000", "143039.687000", "143039.687000", "143039.703000", "143039.703000", "143039.703000", "143039.703000", "143039.703000", "143114.328000", "143114.328000", "143114.328000", "143114.343000", "143114.343000", "143114.343000", "143114.343000", "143114.343000", "143114.343000", "143114.343000", "143114.359000", "143114.359000", "143114.359000", "143114.359000", "143114.359000", "143114.359000", "143114.359000", "143114.375000"],
      "InstanceCreationTime": ["142159.687000", "142159.687000", "142159.687000", "142159.687000", "142159.687000", "142159.703000", "142159.703000", "142159.703000", "142159.718000", "142159.718000", "142159.718000", "142159.718000", "142159.718000", "142159.718000", "142159.718000", "142159.734000", "142159.734000", "142159.734000", "142159.734000", "142159.734000", "142159.750000", "142159.750000", "142239.656000", "142239.656000", "142239.656000", "142239.656000", "142239.671000", "142239.671000", "142239.671000", "142239.671000", "142239.687000", "142239.687000", "142239.687000", "142239.687000", "142239.687000", "142239.687000", "142239.703000", "142239.703000", "142239.703000", "142239.703000", "142239.703000", "142239.703000", "142319.656000", "142319.656000", "142319.656000", "142319.671000", "142319.671000", "142319.671000", "142319.671000", "142319.671000", "142319.671000", "142319.687000", "142319.687000", "142319.687000", "142319.687000", "142319.687000", "142319.687000", "142319.687000", "142319.687000", "142319.703000", "142319.703000", "142319.703000", "142359.656000", "142359.656000", "142359.656000", "142359.671000", "142359.671000", "142359.671000", "142359.671000", "142359.671000", "142359.687000", "142359.687000", "142359.687000", "142359.687000", "142359.687000", "142359.687000", "142359.687000", "142359.687000", "142359.703000", "142359.703000", "142359.703000", "142359.703000", "142439.656000", "142439.656000", "142439.656000", "142439.656000", "142439.671000", "142439.671000", "142439.671000", "142439.671000", "142439.671000", "142439.687000", "142439.687000", "142439.687000", "142439.687000", "142439.687000", "142439.687000", "142439.687000", "142439.687000", "142439.703000", "142439.703000", "142439.703000", "142519.656000", "142519.656000", "142519.656000", "142519.656000", "142519.671000", "142519.671000", "142519.671000", "142519.671000", "142519.671000", "142519.671000", "142519.671000", "142519.687000", "142519.687000", "142519.687000", "142519.687000", "142519.687000", "142519.687000", "142519.687000", "142519.687000", "142519.703000", "142559.656000", "142559.656000", "142559.656000", "142559.671000", "142559.671000", "142559.671000", "142559.671000", "142559.671000", "142559.687000", "142559.687000", "142559.687000", "142559.687000", "142559.687000", "142559.687000", "142559.687000", "142559.687000", "142559.703000", "142559.703000", "142559.703000", "142559.703000", "142639.656000", "142639.656000", "142639.656000", "142639.656000", "142639.671000", "142639.671000", "142639.671000", "142639.671000", "142639.687000", "142639.687000", "142639.687000", "142639.687000", "142639.687000", "142639.703000", "142639.703000", "142639.703000", "142639.703000", "142639.703000", "142639.703000", "142639.718000", "142719.656000", "142719.656000", "142719.656000", "142719.656000", "142719.671000", "142719.671000", "142719.687000", "142719.687000", "142719.687000", "142719.687000", "142719.687000", "142719.687000", "142719.687000", "142719.703000", "142719.703000", "142719.703000", "142719.703000", "142719.703000", "142719.703000", "142719.718000", "142759.656000", "142759.656000", "142759.656000", "142759.671000", "142759.671000", "142759.671000", "142759.671000", "142759.671000", "142759.671000", "142759.687000", "142759.687000", "142759.687000", "142759.687000", "142759.687000", "142759.687000", "142759.703000", "142759.703000", "142759.703000", "142759.703000", "142759.703000", "142839.656000", "142839.656000", "142839.656000", "142839.671000", "142839.671000", "142839.671000", "142839.671000", "142839.671000", "142839.671000", "142839.671000", "142839.671000", "142839.687000", "142839.687000", "142839.687000", "142839.687000", "142839.687000", "142839.687000", "142839.687000", "142839.703000", "142839.703000", "142919.656000", "142919.656000", "142919.656000", "142919.656000", "142919.671000", "142919.671000", "142919.671000", "142919.671000", "142919.671000", "142919.671000", "142919.671000", "142919.687000", "142919.687000", "142919.687000", "142919.687000", "142919.687000", "142919.687000", "142919.687000", "142919.687000", "142919.703000", "142959.656000", "142959.656000", "142959.656000", "142959.656000", "142959.671000", "142959.671000", "142959.671000", "142959.671000", "142959.671000", "142959.671000", "142959.671000", "142959.687000", "142959.687000", "142959.687000", "142959.687000", "142959.687000", "142959.687000", "142959.687000", "142959.703000", "142959.703000", "143039.656000", "143039.656000", "143039.656000", "143039.656000", "143039.671000", "143039.671000", "143039.671000", "143039.671000", "143039.687000", "143039.687000", "143039.687000", "143039.687000", "143039.687000", "143039.687000", "143039.687000", "143039.703000", "143039.703000", "143039.703000", "143039.703000", "143039.703000", "143114.328000", "143114.328000", "143114.328000", "143114.343000", "143114.343000", "143114.343000", "143114.343000", "143114.343000", "143114.343000", "143114.343000", "143114.359000", "143114.359000", "143114.359000", "143114.359000", "143114.359000", "143114.359000", "143114.359000", "143114.375000"],
      "InstanceNumber": [1, 2, 3, 4, 5, 6, 7, 8, 9, 10, 11, 12, 13, 14, 15, 16, 17, 18, 19, 20, 21, 22, 23, 24, 25, 26, 27, 28, 29, 30, 31, 32, 33, 34, 35, 36, 37, 38, 39, 40, 41, 42, 43, 44, 45, 46, 47, 48, 49, 50, 51, 52, 53, 54, 55, 56, 57, 58, 59, 60, 61, 62, 63, 64, 65, 66, 67, 68, 69, 70, 71, 72, 73, 74, 75, 76, 77, 78, 79, 80, 81, 82, 83, 84, 85, 86, 87, 88, 89, 90, 91, 92, 93, 94, 95, 96, 97, 98, 99, 100, 101, 102, 103, 104, 105, 106, 107, 108, 109, 110, 111, 112, 113, 114, 115, 116, 117, 118, 119, 120, 121, 122, 123, 124, 125, 126, 127, 128, 129, 130, 131, 132, 133, 134, 135, 136, 137, 138, 139, 140, 141, 142, 143, 144, 145, 146, 147, 148, 149, 150, 151, 152, 153, 154, 155, 156, 157, 158, 159, 160, 161, 162, 163, 164, 165, 166, 167, 168, 169, 170, 171, 172, 173, 174, 175, 176, 177, 178, 179, 180, 181, 182, 183, 184, 185, 186, 187, 188, 189, 190, 191, 192, 193, 194, 195, 196, 197, 198, 199, 200, 201, 202, 203, 204, 205, 206, 207, 208, 209, 210, 211, 212, 213, 214, 215, 216, 217, 218, 219, 220, 221, 222, 223, 224, 225, 226, 227, 228, 229, 230, 231, 232, 233, 234, 235, 236, 237, 238, 239, 240, 241, 242, 243, 244, 245, 246, 247, 248, 249, 250, 251, 252, 253, 254, 255, 256, 257, 258, 259, 260, 261, 262, 263, 264, 265, 266, 267, 268, 269, 270, 271, 272, 273, 274, 275, 276, 277, 278, 279, 280, 281, 282, 283, 284, 285, 286, 287, 288, 289, 290, 291, 292, 293, 294, 295, 296, 297, 298, 299, 300],
      "LargestImagePixelValue": [1835, 1827, 1782, 1806, 1803, 1949, 1802, 1809, 1866, 1779, 1801, 1832, 1793, 1798, 1792, 1800, 1846, 2142, 1791, 1826, 1805, 1810, 1776, 1775, 1806, 1796, 1860, 1797, 1851, 1938, 1824, 2032, 1776, 1848, 1856, 1795, 1831, 1796, 1784, 1821, 1771, 1840, 1776, 1805, 1877, 1820, 1831, 1903, 2113, 1782, 1851, 2132, 1820, 1864, 1855, 1784, 1774, 1863, 1804, 1820, 1873, 1784, 1833, 1834, 1766, 1849, 2154, 1826, 2164, 2038, 1824, 1846, 1784, 1835, 1840, 2135, 1777, 1821, 1835, 1802, 1803, 1829, 1864, 1790, 1849, 2061, 2156, 1843, 1840, 1873, 1785, 1821, 1816, 1851, 1806, 1788, 1842, 1881, 1836, 1788, 1790, 1799, 1849, 1846, 1778, 1853, 1823, 1888, 1878, 1834, 1794, 1872, 2463, 2270, 1801, 1844, 1858, 1880, 1814, 1774, 1828, 1815, 1841, 1782, 1776, 1825, 1819, 1875, 1864, 1900, 1797, 1821, 1860, 1789, 1832, 1783, 1799, 1822, 2091, 1796, 1793, 2468, 1813, 1810, 1955, 1834, 1783, 1906, 1886, 1822, 1858, 1829, 1906, 1865, 1846, 2548, 1804, 1820, 1878, 1798, 1811, 1824, 1860, 1872, 1793, 1810, 1832, 1807, 1784, 1831, 1867, 2479, 2356, 1835, 1834, 1894, 1828, 1839, 1825, 1878, 2599, 2449, 1814, 1851, 1880, 1776, 1860, 1934, 1844, 1876, 2457, 2153, 1799, 1788, 1853, 1863, 1800, 1801, 1878, 1868, 2254, 1849, 2165, 2723, 1892, 1851, 1984, 2277, 1862, 1879, 1800, 1809, 1833, 1894, 1801, 1831, 1880, 2061, 1881, 1848, 1814, 1881, 1881, 1832, 1856, 1834, 2132, 1850, 2155, 2701, 2636, 1829, 1843, 1888, 1834, 1858, 1827, 1872, 1829, 1816, 1826, 1814, 2248, 1835, 2467, 2842, 2090, 1845, 1856, 2086, 1825, 1836, 1848, 1929, 1905, 1861, 1850, 1950, 1846, 1840, 1856, 1838, 1841, 1861, 1925, 2063, 1919, 1890, 2102, 2769, 1859, 1854, 1889, 1826, 1866, 1853, 2364, 2428, 1860, 2015, 1881, 1897, 1819, 1821, 1844, 1898, 1784, 1841, 1836, 1899, 2618, 2001, 2711, 2887, 2826, 1864, 1898, 2604, 1844, 1888],
      "WindowCenter": [674.0, 671.0, 671.0, 670.0, 670.0, 671.0, 670.0, 669.0, 670.0, 670.0, 671.0, 671.0, 671.0, 671.0, 671.0, 671.0, 671.0, 672.0, 671.0, 671.0, 671.0, 671.0, 672.0, 672.0, 672.0, 672.0, 672.0, 672.0, 672.0, 672.0, 672.0, 672.0, 671.0, 671.0, 672.0, 672.0, 672.0, 672.0, 672.0, 672.0, 672.0, 673.0, 673.0, 673.0, 673.0, 672.0, 672.0, 672.0, 673.0, 672.0, 672.0, 674.0, 672.0, 672.0, 672.0, 672.0, 672.0, 673.0, 673.0, 672.0, 673.0, 673.0, 673.0, 673.0, 672.0, 673.0, 675.0, 673.0, 674.0, 673.0, 673.0, 674.0, 673.0, 673.0, 673.0, 674.0, 673.0, 673.0, 674.0, 673.0, 673.0, 673.0, 674.0, 674.0, 674.0, 675.0, 675.0, 673.0, 673.0, 673.0, 673.0, 673.0, 673.0, 674.0, 673.0, 674.0, 674.0, 675.0, 674.0, 674.0, 674.0, 675.0, 674.0, 675.0, 675.0, 676.0, 675.0, 675.0, 675.0, 675.0, 676.0, 676.0, 677.0, 675.0, 674.0, 674.0, 674.0, 674.0, 675.0, 675.0, 674.0, 675.0, 675.0, 675.0, 675.0, 676.0, 675.0, 676.0, 676.0, 675.0, 675.0, 674.0, 675.0, 675.0, 676.0, 674.0, 677.0, 677.0, 677.0, 674.0, 676.0, 679.0, 674.0, 675.0, 677.0, 674.0, 675.0, 676.0, 675.0, 675.0, 675.0, 676.0, 677.0, 676.0, 675.0, 677.0, 675.0, 675.0, 676.0, 676.0, 676.0, 676.0, 676.0, 677.0, 677.0, 677.0, 677.0, 677.0, 677.0, 677.0, 678.0, 679.0, 678.0, 676.0, 677.0, 677.0, 677.0, 678.0, 678.0, 677.0, 679.0, 678.0, 675.0, 676.0, 677.0, 677.0, 677.0, 678.0, 677.0, 677.0, 678.0, 677.0, 676.0, 676.0, 677.0, 678.0, 678.0, 678.0, 678.0, 678.0, 680.0, 677.0, 678.0, 679.0, 677.0, 676.0, 677.0, 678.0, 677.0, 677.0, 676.0, 677.0, 677.0, 678.0, 678.0, 679.0, 678.0, 678.0, 677.0, 678.0, 678.0, 678.0, 678.0, 678.0, 678.0, 679.0, 680.0, 678.0, 679.0, 679.0, 679.0, 676.0, 677.0, 677.0, 677.0, 677.0, 678.0, 678.0, 678.0, 678.0, 679.0, 679.0, 681.0, 678.0, 680.0, 680.0, 676.0, 676.0, 678.0, 679.0, 677.0, 678.0, 678.0, 679.0, 678.0, 678.0, 678.0, 678.0, 678.0, 679.0, 679.0, 679.0, 680.0, 680.0, 680.0, 680.0, 680.0, 679.0, 680.0, 681.0, 678.0, 678.0, 678.0, 679.0, 679.0, 679.0, 680.0, 681.0, 678.0, 679.0, 677.0, 678.0, 678.0, 679.0, 679.0, 680.0, 680.0, 681.0, 680.0, 681.0, 683.0, 681.0, 682.0, 680.0, 680.0, 677.0, 678.0, 680.0, 678.0, 679.0],
      "WindowWidth": [1454.0, 1446.0, 1444.0, 1442.0, 1442.0, 1445.0, 1443.0, 1441.0, 1443.0, 1443.0, 1445.0, 1446.0, 1445.0, 1444.0, 1445.0, 1445.0, 1445.0, 1448.0, 1444.0, 1445.0, 1445.0, 1445.0, 1447.0, 1448.0, 1449.0, 1448.0, 1448.0, 1447.0, 1448.0, 1449.0, 1447.0, 1449.0, 1446.0, 1446.0, 1447.0, 1447.0, 1447.0, 1448.0, 1447.0, 1449.0, 1448.0, 1451.0, 1450.0, 1450.0, 1451.0, 1449.0, 1448.0, 1449.0, 1451.0, 1448.0, 1449.0, 1452.0, 1448.0, 1449.0, 1448.0, 1448.0, 1448.0, 1450.0, 1450.0, 1449.0, 1451.0, 1450.0, 1450.0, 1451.0, 1449.0, 1452.0, 1455.0, 1451.0, 1454.0, 1452.0, 1450.0, 1452.0, 1451.0, 1451.0, 1451.0, 1453.0, 1450.0, 1451.0, 1452.0, 1451.0, 1452.0, 1451.0, 1452.0, 1453.0, 1454.0, 1455.0, 1455.0, 1451.0, 1450.0, 1451.0, 1450.0, 1451.0, 1451.0, 1452.0, 1452.0, 1453.0, 1453.0, 1455.0, 1453.0, 1453.0, 1454.0, 1455.0, 1454.0, 1456.0, 1456.0, 1458.0, 1456.0, 1457.0, 1457.0, 1456.0, 1457.0, 1458.0, 1462.0, 1457.0, 1453.0, 1455.0, 1453.0, 1454.0, 1455.0, 1455.0, 1454.0, 1455.0, 1455.0, 1456.0, 1456.0, 1457.0, 1457.0, 1460.0, 1458.0, 1457.0, 1455.0, 1454.0, 1457.0, 1457.0, 1458.0, 1454.0, 1460.0, 1462.0, 1463.0, 1453.0, 1459.0, 1466.0, 1453.0, 1456.0, 1461.0, 1453.0, 1457.0, 1458.0, 1456.0, 1455.0, 1456.0, 1458.0, 1460.0, 1458.0, 1457.0, 1461.0, 1456.0, 1456.0, 1459.0, 1459.0, 1459.0, 1458.0, 1459.0, 1461.0, 1461.0, 1461.0, 1460.0, 1461.0, 1461.0, 1462.0, 1463.0, 1467.0, 1465.0, 1459.0, 1461.0, 1462.0, 1462.0, 1463.0, 1463.0, 1462.0, 1466.0, 1463.0, 1457.0, 1459.0, 1460.0, 1462.0, 1462.0, 1464.0, 1461.0, 1460.0, 1463.0, 1462.0, 1459.0, 1460.0, 1461.0, 1464.0, 1463.0, 1463.0, 1464.0, 1465.0, 1468.0, 1461.0, 1463.0, 1466.0, 1460.0, 1459.0, 1461.0, 1465.0, 1460.0, 1461.0, 1460.0, 1461.0, 1462.0, 1464.0, 1465.0, 1466.0, 1465.0, 1463.0, 1462.0, 1463.0, 1464.0, 1465.0, 1465.0, 1463.0, 1465.0, 1466.0, 1469.0, 1464.0, 1466.0, 1467.0, 1467.0, 1459.0, 1461.0, 1461.0, 1462.0, 1463.0, 1464.0, 1465.0, 1464.0, 1465.0, 1466.0, 1466.0, 1472.0, 1464.0, 1471.0, 1470.0, 1460.0, 1459.0, 1464.0, 1467.0, 1462.0, 1463.0, 1464.0, 1466.0, 1465.0, 1464.0, 1463.0, 1465.0, 1465.0, 1466.0, 1467.0, 1467.0, 1468.0, 1469.0, 1469.0, 1470.0, 1468.0, 1467.0, 1470.0, 1473.0, 1464.0, 1464.0, 1465.0, 1467.0, 1466.0, 1466.0, 1468.0, 1471.0, 1464.0, 1466.0, 1462.0, 1464.0, 1465.0, 1467.0, 1468.0, 1470.0, 1469.0, 1470.0, 1469.0, 1473.0, 1478.0, 1471.0, 1474.0, 1471.0, 1469.0, 1462.0, 1465.0, 1469.0, 1465.0, 1466.0]
    },
    "slices": {}
  }
}