{
  "AcquisitionMatrixPE": 74,
  "AcquisitionNumber": 1,
  "AcquisitionTime": "09:48:42.000000",
  "BandwidthPerPixelPhaseEncode": 27.579,
  "BaseResolution": 74,
  "BodyPartExamined": "HEAD",
  "CoilString": "t:HEA;HEP",
  "ConversionSoftware": "dcm2niix",
  "ConversionSoftwareVersion": "v1.0.20190410  GCC6.3.0",
  "DerivedVendorReportedEchoSpacing": 0.000489993,
  "DeviceSerialNumber": "35256",
  "DwellTime": 2.4e-06,
  "EchoTime": 0.03,
  "EffectiveEchoSpacing": 0.000489993,
  "FlipAngle": 70,
  "ImageOrientationPatientDICOM": [1, 0, 0, 0, 1, 0],
  "ImageType": [
    "ORIGINAL",
    "PRIMARY",
    "M",
    "ND",
    "NORM",
    "MOSAIC"
],
  "ImagingFrequency": 123.223,
  "InPlanePhaseEncodingDirectionDICOM": "COL",
  "InstitutionAddress": "East_Lee_St._2907_Greensboro_NC_US_27401",
  "InstitutionName": "JSNN",
  "InstitutionalDepartmentName": "Department",
  "MRAcquisitionType": "2D",
  "MagneticFieldStrength": 3,
  "Manufacturer": "Siemens",
  "ManufacturersModelName": "TrioTim",
  "Modality": "MR",
  "PartialFourier": 1,
  "PatientPosition": "HFS",
  "PercentPhaseFOV": 100,
  "PhaseEncodingDirection": "j-",
  "PhaseEncodingSteps": 74,
  "PhaseResolution": 1,
  "PixelBandwidth": 2815,
  "ProcedureStepDescription": "head_Cassidy",
  "ProtocolName": "RestingState",
  "PulseSequenceDetails": "%SiemensSeq%_ep2d_bold",
  "ReceiveCoilName": "HeadMatrix",
  "ReconMatrixPE": 74,
  "RepetitionTime": 2,
  "SAR": 0.0900696,
  "ScanOptions": "FS",
  "ScanningSequence": "EP",
  "SequenceName": "_epfid2d1_74",
  "SequenceVariant": "SK",
  "SeriesDescription": "RestingState",
  "SeriesNumber": 3,
  "ShimSetting": [1359, 10511, -8898, 865, 182, 274, -189, 36],
  "SliceThickness": 4,
  "SliceTiming": [1.945, 1.8825, 1.82, 1.7575, 1.695, 1.63, 1.5675, 1.505, 1.4425, 1.38, 1.3175, 1.255, 1.1925, 1.13, 1.0675, 1.005, 0.94, 0.8775, 0.815, 0.7525, 0.69, 0.6275, 0.565, 0.5025, 0.44, 0.3775, 0.315, 0.25, 0.1875, 0.125, 0.0625, 0],
  "SoftwareVersions": "syngo_MR_B19",
  "SpacingBetweenSlices": 4,
  "StationName": "JSNNMRI",
  "TaskName": "rest",
  "TotalReadoutTime": 0.0357695,
  "TxRefAmp": 258.717,
  "dcmmeta_affine": [
    [-2.972972869873047, 0.0, 0.0, 105.18071746826172],
    [0.0, 2.972972869873047, 0.0, -89.55714416503906],
    [0.0, 0.0, 4.0, -76.7518081665039],
    [0.0, 0.0, 0.0, 1.0]
],
  "dcmmeta_reorient_transform": [
    [0.0, -1.0, 0.0, 73.0],
    [1.0, 0.0, 0.0, 0.0],
    [0.0, 0.0, 1.0, 0.0],
    [0.0, 0.0, 0.0, 1.0]
],
  "dcmmeta_shape": [74, 74, 32, 300],
  "dcmmeta_slice_dim": 2,
  "dcmmeta_version": 0.6,
  "global": {
    "const": {
      "AcquisitionMatrix": [74, 0, 0, 74],
      "AngioFlag": "N",
      "BitsAllocated": 16,
      "BitsStored": 12,
      "BodyPartExamined": "HEAD",
      "Columns": 444,
      "EchoNumbers": 1,
      "EchoTime": 30.0,
      "EchoTrainLength": 1,
      "FlipAngle": 70.0,
      "HighBit": 11,
      "ImageOrientationPatient": [1.0, 0.0, 0.0, 0.0, 1.0, 0.0],
      "ImagePositionPatient": [-655.18069982529, -677.46985626221, -76.751808166504],
      "ImageType": [
        "ORIGINAL",
        "PRIMARY",
        "M",
        "ND",
        "NORM",
        "MOSAIC"
],
      "ImagedNucleus": "1H",
      "ImagingFrequency": 123.223109,
      "InPlanePhaseEncodingDirection": "COL",
      "MRAcquisitionType": "2D",
      "MagneticFieldStrength": 3.0,
      "Manufacturer": "SIEMENS",
      "ManufacturerModelName": "TrioTim",
      "Modality": "MR",
      "NumberOfAverages": 1.0,
      "NumberOfPhaseEncodingSteps": 74,
      "PercentPhaseFieldOfView": 100.0,
      "PercentSampling": 100.0,
      "PerformedProcedureStepStartTime": "091319.728000",
      "PhotometricInterpretation": "MONOCHROME2",
      "PixelBandwidth": 2815.0,
      "PixelRepresentation": 0,
      "PixelSpacing": [2.972972869873, 2.972972869873],
      "ProtocolName": "RestingState",
      "RepetitionTime": 2000.0,
      "Rows": 444,
      "SAR": 0.09006956769741,
      "SamplesPerPixel": 1,
      "ScanOptions": "FS",
      "ScanningSequence": "EP",
      "SequenceName": "*epfid2d1_74",
      "SequenceVariant": "SK",
      "SeriesDescription": "RestingState",
      "SeriesNumber": 3,
      "SeriesTime": "094922.377000",
      "SliceLocation": -76.751808166504,
      "SliceThickness": 4.0,
      "SmallestImagePixelValue": 0,
      "SoftwareVersions": "syngo MR B19",
      "SpacingBetweenSlices": 4.0,
      "SpecificCharacterSet": "ISO_IR 100",
      "StudyID": "1",
      "StudyTime": "091319.666000",
      "TransmitCoilName": "Body",
      "VariableFlipAngleFlag": "N",
      "WindowCenterWidthExplanation": "Algo1",
      "dBdt": 0.0},
    "slices": {}
  },
  "time": {
    "samples": {
      "AcquisitionNumber": [1, 2, 3, 4, 5, 6, 7, 8, 9, 10, 11, 12, 13, 14, 15, 16, 17, 18, 19, 20, 21, 22, 23, 24, 25, 26, 27, 28, 29, 30, 31, 32, 33, 34, 35, 36, 37, 38, 39, 40, 41, 42, 43, 44, 45, 46, 47, 48, 49, 50, 51, 52, 53, 54, 55, 56, 57, 58, 59, 60, 61, 62, 63, 64, 65, 66, 67, 68, 69, 70, 71, 72, 73, 74, 75, 76, 77, 78, 79, 80, 81, 82, 83, 84, 85, 86, 87, 88, 89, 90, 91, 92, 93, 94, 95, 96, 97, 98, 99, 100, 101, 102, 103, 104, 105, 106, 107, 108, 109, 110, 111, 112, 113, 114, 115, 116, 117, 118, 119, 120, 121, 122, 123, 124, 125, 126, 127, 128, 129, 130, 131, 132, 133, 134, 135, 136, 137, 138, 139, 140, 141, 142, 143, 144, 145, 146, 147, 148, 149, 150, 151, 152, 153, 154, 155, 156, 157, 158, 159, 160, 161, 162, 163, 164, 165, 166, 167, 168, 169, 170, 171, 172, 173, 174, 175, 176, 177, 178, 179, 180, 181, 182, 183, 184, 185, 186, 187, 188, 189, 190, 191, 192, 193, 194, 195, 196, 197, 198, 199, 200, 201, 202, 203, 204, 205, 206, 207, 208, 209, 210, 211, 212, 213, 214, 215, 216, 217, 218, 219, 220, 221, 222, 223, 224, 225, 226, 227, 228, 229, 230, 231, 232, 233, 234, 235, 236, 237, 238, 239, 240, 241, 242, 243, 244, 245, 246, 247, 248, 249, 250, 251, 252, 253, 254, 255, 256, 257, 258, 259, 260, 261, 262, 263, 264, 265, 266, 267, 268, 269, 270, 271, 272, 273, 274, 275, 276, 277, 278, 279, 280, 281, 282, 283, 284, 285, 286, 287, 288, 289, 290, 291, 292, 293, 294, 295, 296, 297, 298, 299, 300],
      "AcquisitionTime": ["094842.000000", "094844.007500", "094846.015000", "094848.025000", "094850.032500", "094852.040000", "094854.047500", "094856.055000", "094858.065000", "094900.072500", "094902.080000", "094904.087500", "094906.097500", "094908.105000", "094910.112500", "094912.120000", "094914.127500", "094916.137500", "094918.145000", "094920.152500", "094922.160000", "094924.167500", "094926.177500", "094928.185000", "094930.192500", "094932.200000", "094934.207500", "094936.217500", "094938.225000", "094940.232500", "094942.240000", "094944.250000", "094946.257500", "094948.265000", "094950.272500", "094952.280000", "094954.290000", "094956.297500", "094958.305000", "095000.312500", "095002.320000", "095004.330000", "095006.337500", "095008.345000", "095010.352500", "095012.362500", "095014.370000", "095016.377500", "095018.385000", "095020.392500", "095022.402500", "095024.410000", "095026.417500", "095028.425000", "095030.432500", "095032.442500", "095034.450000", "095036.457500", "095038.465000", "095040.475000", "095042.482500", "095044.490000", "095046.497500", "095048.505000", "095050.515000", "095052.522500", "095054.530000", "095056.537500", "095058.545000", "095100.555000", "095102.562500", "095104.570000", "095106.577500", "095108.585000", "095110.595000", "095112.602500", "095114.610000", "095116.617500", "095118.627500", "095120.635000", "095122.642500", "095124.650000", "095126.657500", "095128.667500", "095130.675000", "095132.682500", "095134.690000", "095136.697500", "095138.707500", "095140.715000", "095142.722500", "095144.730000", "095146.740000", "095148.747500", "095150.755000", "095152.762500", "095154.770000", "095156.780000", "095158.787500", "095200.795000", "095202.802500", "095204.810000", "095206.820000", "095208.827500", "095210.835000", "095212.842500", "095214.852500", "095216.860000", "095218.867500", "095220.875000", "095222.882500", "095224.892500", "095226.900000", "095228.907500", "095230.915000", "095232.922500", "095234.932500", "095236.940000", "095238.947500", "095240.955000", "095242.962500", "095244.972500", "095246.980000", "095248.987500", "095250.995000", "095253.005000", "095255.012500", "095257.020000", "095259.027500", "095301.035000", "095303.045000", "095305.052500", "095307.060000", "095309.067500", "095311.075000", "095313.085000", "095315.092500", "095317.100000", "095319.107500", "095321.117500", "095323.125000", "095325.132500", "095327.140000", "095329.147500", "095331.157500", "095333.165000", "095335.172500", "095337.180000", "095339.187500", "095341.197500", "095343.205000", "095345.212500", "095347.220000", "095349.230000", "095351.237500", "095353.245000", "095355.252500", "095357.260000", "095359.270000", "095401.277500", "095403.285000", "095405.292500", "095407.300000", "095409.310000", "095411.317500", "095413.325000", "095415.332500", "095417.340000", "095419.350000", "095421.357500", "095423.365000", "095425.372500", "095427.382500", "095429.390000", "095431.397500", "095433.405000", "095435.412500", "095437.422500", "095439.430000", "095441.437500", "095443.445000", "095445.452500", "095447.462500", "095449.470000", "095451.477500", "095453.485000", "095455.495000", "095457.502500", "095459.510000", "095501.517500", "095503.525000", "095505.535000", "095507.542500", "095509.550000", "095511.557500", "095513.565000", "095515.575000", "095517.582500", "095519.590000", "095521.597500", "095523.607500", "095525.615000", "095527.622500", "095529.630000", "095531.637500", "095533.647500", "095535.655000", "095537.662500", "095539.670000", "095541.677500", "095543.687500", "095545.695000", "095547.702500", "095549.710000", "095551.720000", "095553.727500", "095555.735000", "095557.742500", "095559.750000", "095601.760000", "095603.767500", "095605.775000", "095607.782500", "095609.790000", "095611.800000", "095613.807500", "095615.815000", "095617.822500", "095619.830000", "095621.840000", "095623.847500", "095625.855000", "095627.862500", "095629.872500", "095631.880000", "095633.887500", "095635.895000", "095637.902500", "095639.912500", "095641.920000", "095643.927500", "095645.935000", "095647.942500", "095649.952500", "095651.960000", "095653.967500", "095655.975000", "095657.985000", "095659.992500", "095702.000000", "095704.007500", "095706.015000", "095708.025000", "095710.032500", "095712.040000", "095714.047500", "095716.055000", "095718.065000", "095720.072500", "095722.080000", "095724.087500", "095726.097500", "095728.105000", "095730.112500", "095732.120000", "095734.127500", "095736.137500", "095738.145000", "095740.152500", "095742.160000", "095744.167500", "095746.177500", "095748.185000", "095750.192500", "095752.200000", "095754.207500", "095756.217500", "095758.225000", "095800.232500", "095802.240000", "095804.250000", "095806.257500", "095808.265000", "095810.272500", "095812.280000", "095814.290000", "095816.297500", "095818.305000", "095820.312500", "095822.320000", "095824.330000", "095826.337500", "095828.345000", "095830.352500", "095832.362500", "095834.370000", "095836.377500", "095838.385000", "095840.392500", "095842.402500"],
      "ContentTime": ["094922.379000", "094922.382000", "094922.394000", "094922.397000", "094922.399000", "094922.402000", "094922.402000", "094922.404000", "094922.407000", "094922.409000", "094922.409000", "094922.412000", "094922.414000", "094922.417000", "094922.424000", "094922.429000", "094922.432000", "094922.434000", "094922.437000", "094922.437000", "095002.372000", "095002.375000", "095002.377000", "095002.380000", "095002.382000", "095002.382000", "095002.385000", "095002.387000", "095002.390000", "095002.390000", "095002.392000", "095002.395000", "095002.397000", "095002.397000", "095002.400000", "095002.402000", "095002.405000", "095002.405000", "095002.407000", "095002.410000", "095042.373000", "095042.375000", "095042.378000", "095042.380000", "095042.383000", "095042.383000", "095042.385000", "095042.388000", "095042.390000", "095042.390000", "095042.393000", "095042.395000", "095042.398000", "095042.398000", "095042.400000", "095042.403000", "095042.405000", "095042.405000", "095042.408000", "095042.410000", "095122.373000", "095122.376000", "095122.378000", "095122.381000", "095122.383000", "095122.383000", "095122.386000", "095122.388000", "095122.391000", "095122.398000", "095122.398000", "095122.401000", "095122.403000", "095122.406000", "095122.406000", "095122.408000", "095122.411000", "095122.413000", "095122.413000", "095122.416000", "095202.374000", "095202.377000", "095202.379000", "095202.382000", "095202.384000", "095202.384000", "095202.387000", "095202.397000", "095202.397000", "095202.399000", "095202.402000", "095202.404000", "095202.404000", "095202.407000", "095202.409000", "095202.412000", "095202.412000", "095202.414000", "095202.417000", "095202.419000", "095242.372000", "095242.375000", "095242.377000", "095242.380000", "095242.382000", "095242.382000", "095242.385000", "095242.387000", "095242.390000", "095242.390000", "095242.392000", "095242.395000", "095242.412000", "095242.412000", "095242.415000", "095242.417000", "095242.420000", "095242.420000", "095242.422000", "095242.425000", "095322.373000", "095322.375000", "095322.378000", "095322.380000", "095322.383000", "095322.383000", "095322.385000", "095322.388000", "095322.390000", "095322.390000", "095322.393000", "095322.395000", "095322.398000", "095322.398000", "095322.400000", "095322.403000", "095322.405000", "095322.405000", "095322.408000", "095322.410000", "095402.373000", "095402.376000", "095402.378000", "095402.381000", "095402.383000", "095402.383000", "095402.386000", "095402.388000", "095402.391000", "095402.391000", "095402.393000", "095402.396000", "095402.398000", "095402.398000", "095402.401000", "095402.403000", "095402.406000", "095402.406000", "095402.408000", "095402.411000", "095442.374000", "095442.376000", "095442.379000", "095442.381000", "095442.384000", "095442.384000", "095442.386000", "095442.389000", "095442.391000", "095442.391000", "095442.394000", "095442.396000", "095442.399000", "095442.399000", "095442.401000", "095442.404000", "095442.406000", "095442.409000", "095442.409000", "095442.411000", "095522.372000", "095522.375000", "095522.377000", "095522.380000", "095522.382000", "095522.382000", "095522.385000", "095522.387000", "095522.390000", "095522.390000", "095522.392000", "095522.395000", "095522.397000", "095522.397000", "095522.400000", "095522.402000", "095522.405000", "095522.405000", "095522.407000", "095522.410000", "095602.373000", "095602.375000", "095602.378000", "095602.380000", "095602.383000", "095602.383000", "095602.385000", "095602.388000", "095602.390000", "095602.390000", "095602.393000", "095602.395000", "095602.398000", "095602.398000", "095602.400000", "095602.403000", "095602.405000", "095602.408000", "095602.408000", "095602.410000", "095642.373000", "095642.376000", "095642.378000", "095642.381000", "095642.383000", "095642.383000", "095642.386000", "095642.388000", "095642.391000", "095642.391000", "095642.393000", "095642.396000", "095642.398000", "095642.398000", "095642.401000", "095642.403000", "095642.406000", "095642.406000", "095642.408000", "095642.411000", "095722.374000", "095722.376000", "095722.379000", "095722.381000", "095722.384000", "095722.384000", "095722.386000", "095722.389000", "095722.391000", "095722.391000", "095722.394000", "095722.396000", "095722.399000", "095722.399000", "095722.401000", "095722.404000", "095722.406000", "095722.406000", "095722.409000", "095722.411000", "095802.372000", "095802.375000", "095802.377000", "095802.380000", "095802.382000", "095802.382000", "095802.385000", "095802.387000", "095802.390000", "095802.390000", "095802.392000", "095802.395000", "095802.397000", "095802.397000", "095802.400000", "095802.402000", "095802.405000", "095802.407000", "095802.407000", "095802.410000", "095841.665000", "095841.665000", "095841.668000", "095841.670000", "095841.673000", "095841.675000", "095841.675000", "095841.678000", "095841.680000", "095841.683000", "095841.683000", "095841.685000", "095841.688000", "095841.690000", "095841.693000", "095841.693000", "095841.695000", "095841.698000", "095841.700000", "095841.700000"],
      "InstanceCreationTime": ["094922.379000", "094922.382000", "094922.394000", "094922.397000", "094922.399000", "094922.402000", "094922.402000", "094922.404000", "094922.407000", "094922.409000", "094922.409000", "094922.412000", "094922.414000", "094922.417000", "094922.424000", "094922.429000", "094922.432000", "094922.434000", "094922.437000", "094922.437000", "095002.372000", "095002.375000", "095002.377000", "095002.380000", "095002.382000", "095002.382000", "095002.385000", "095002.387000", "095002.390000", "095002.390000", "095002.392000", "095002.395000", "095002.397000", "095002.397000", "095002.400000", "095002.402000", "095002.405000", "095002.405000", "095002.407000", "095002.410000", "095042.373000", "095042.375000", "095042.378000", "095042.380000", "095042.383000", "095042.383000", "095042.385000", "095042.388000", "095042.390000", "095042.390000", "095042.393000", "095042.395000", "095042.398000", "095042.398000", "095042.400000", "095042.403000", "095042.405000", "095042.405000", "095042.408000", "095042.410000", "095122.373000", "095122.376000", "095122.378000", "095122.381000", "095122.383000", "095122.383000", "095122.386000", "095122.388000", "095122.391000", "095122.398000", "095122.398000", "095122.401000", "095122.403000", "095122.406000", "095122.406000", "095122.408000", "095122.411000", "095122.413000", "095122.413000", "095122.416000", "095202.374000", "095202.377000", "095202.379000", "095202.382000", "095202.384000", "095202.384000", "095202.387000", "095202.397000", "095202.397000", "095202.399000", "095202.402000", "095202.404000", "095202.404000", "095202.407000", "095202.409000", "095202.412000", "095202.412000", "095202.414000", "095202.417000", "095202.419000", "095242.372000", "095242.375000", "095242.377000", "095242.380000", "095242.382000", "095242.382000", "095242.385000", "095242.387000", "095242.390000", "095242.390000", "095242.392000", "095242.395000", "095242.412000", "095242.412000", "095242.415000", "095242.417000", "095242.420000", "095242.420000", "095242.422000", "095242.425000", "095322.373000", "095322.375000", "095322.378000", "095322.380000", "095322.383000", "095322.383000", "095322.385000", "095322.388000", "095322.390000", "095322.390000", "095322.393000", "095322.395000", "095322.398000", "095322.398000", "095322.400000", "095322.403000", "095322.405000", "095322.405000", "095322.408000", "095322.410000", "095402.373000", "095402.376000", "095402.378000", "095402.381000", "095402.383000", "095402.383000", "095402.386000", "095402.388000", "095402.391000", "095402.391000", "095402.393000", "095402.396000", "095402.398000", "095402.398000", "095402.401000", "095402.403000", "095402.406000", "095402.406000", "095402.408000", "095402.411000", "095442.374000", "095442.376000", "095442.379000", "095442.381000", "095442.384000", "095442.384000", "095442.386000", "095442.389000", "095442.391000", "095442.391000", "095442.394000", "095442.396000", "095442.399000", "095442.399000", "095442.401000", "095442.404000", "095442.406000", "095442.409000", "095442.409000", "095442.411000", "095522.372000", "095522.375000", "095522.377000", "095522.380000", "095522.382000", "095522.382000", "095522.385000", "095522.387000", "095522.390000", "095522.390000", "095522.392000", "095522.395000", "095522.397000", "095522.397000", "095522.400000", "095522.402000", "095522.405000", "095522.405000", "095522.407000", "095522.410000", "095602.373000", "095602.375000", "095602.378000", "095602.380000", "095602.383000", "095602.383000", "095602.385000", "095602.388000", "095602.390000", "095602.390000", "095602.393000", "095602.395000", "095602.398000", "095602.398000", "095602.400000", "095602.403000", "095602.405000", "095602.408000", "095602.408000", "095602.410000", "095642.373000", "095642.376000", "095642.378000", "095642.381000", "095642.383000", "095642.383000", "095642.386000", "095642.388000", "095642.391000", "095642.391000", "095642.393000", "095642.396000", "095642.398000", "095642.398000", "095642.401000", "095642.403000", "095642.406000", "095642.406000", "095642.408000", "095642.411000", "095722.374000", "095722.376000", "095722.379000", "095722.381000", "095722.384000", "095722.384000", "095722.386000", "095722.389000", "095722.391000", "095722.391000", "095722.394000", "095722.396000", "095722.399000", "095722.399000", "095722.401000", "095722.404000", "095722.406000", "095722.406000", "095722.409000", "095722.411000", "095802.372000", "095802.375000", "095802.377000", "095802.380000", "095802.382000", "095802.382000", "095802.385000", "095802.387000", "095802.390000", "095802.390000", "095802.392000", "095802.395000", "095802.397000", "095802.397000", "095802.400000", "095802.402000", "095802.405000", "095802.407000", "095802.407000", "095802.410000", "095841.665000", "095841.665000", "095841.668000", "095841.670000", "095841.673000", "095841.675000", "095841.675000", "095841.678000", "095841.680000", "095841.683000", "095841.683000", "095841.685000", "095841.688000", "095841.690000", "095841.693000", "095841.693000", "095841.695000", "095841.698000", "095841.700000", "095841.700000"],
      "InstanceNumber": [1, 2, 3, 4, 5, 6, 7, 8, 9, 10, 11, 12, 13, 14, 15, 16, 17, 18, 19, 20, 21, 22, 23, 24, 25, 26, 27, 28, 29, 30, 31, 32, 33, 34, 35, 36, 37, 38, 39, 40, 41, 42, 43, 44, 45, 46, 47, 48, 49, 50, 51, 52, 53, 54, 55, 56, 57, 58, 59, 60, 61, 62, 63, 64, 65, 66, 67, 68, 69, 70, 71, 72, 73, 74, 75, 76, 77, 78, 79, 80, 81, 82, 83, 84, 85, 86, 87, 88, 89, 90, 91, 92, 93, 94, 95, 96, 97, 98, 99, 100, 101, 102, 103, 104, 105, 106, 107, 108, 109, 110, 111, 112, 113, 114, 115, 116, 117, 118, 119, 120, 121, 122, 123, 124, 125, 126, 127, 128, 129, 130, 131, 132, 133, 134, 135, 136, 137, 138, 139, 140, 141, 142, 143, 144, 145, 146, 147, 148, 149, 150, 151, 152, 153, 154, 155, 156, 157, 158, 159, 160, 161, 162, 163, 164, 165, 166, 167, 168, 169, 170, 171, 172, 173, 174, 175, 176, 177, 178, 179, 180, 181, 182, 183, 184, 185, 186, 187, 188, 189, 190, 191, 192, 193, 194, 195, 196, 197, 198, 199, 200, 201, 202, 203, 204, 205, 206, 207, 208, 209, 210, 211, 212, 213, 214, 215, 216, 217, 218, 219, 220, 221, 222, 223, 224, 225, 226, 227, 228, 229, 230, 231, 232, 233, 234, 235, 236, 237, 238, 239, 240, 241, 242, 243, 244, 245, 246, 247, 248, 249, 250, 251, 252, 253, 254, 255, 256, 257, 258, 259, 260, 261, 262, 263, 264, 265, 266, 267, 268, 269, 270, 271, 272, 273, 274, 275, 276, 277, 278, 279, 280, 281, 282, 283, 284, 285, 286, 287, 288, 289, 290, 291, 292, 293, 294, 295, 296, 297, 298, 299, 300],
      "LargestImagePixelValue": [1843, 1869, 1596, 1716, 1917, 1909, 1932, 1985, 1819, 1736, 1787, 1750, 1750, 1887, 1912, 1783, 1910, 1804, 1813, 1838, 1845, 1874, 1935, 1903, 1807, 1936, 1879, 1859, 1927, 1901, 1953, 1630, 1632, 1605, 1728, 1922, 1673, 1859, 1968, 1754, 1790, 1853, 1724, 1742, 1734, 1684, 1861, 1983, 1791, 1862, 1914, 1745, 1805, 1985, 1882, 1989, 2023, 1875, 1947, 1938, 1747, 1611, 1596, 1600, 2110, 1655, 2036, 1690, 1886, 2082, 1794, 2021, 2053, 1575, 1637, 1532, 1845, 2012, 1687, 1899, 1781, 1850, 2065, 1945, 1599, 1652, 2043, 1843, 1803, 1915, 1975, 2212, 2054, 1930, 1899, 1879, 1700, 1841, 1989, 1639, 1618, 1568, 1586, 1883, 1544, 1790, 2034, 1671, 1877, 1834, 1792, 1921, 1735, 2007, 2213, 1906, 1917, 1798, 1726, 1925, 1961, 2023, 1932, 1798, 1754, 1863, 1958, 1838, 1572, 1601, 1584, 1566, 1594, 1576, 1572, 1618, 1565, 1770, 1899, 1686, 1596, 1619, 1612, 1586, 1633, 1586, 1659, 1737, 1584, 1807, 1809, 1717, 1870, 2005, 1773, 2085, 1882, 1679, 1730, 1557, 1597, 1808, 1892, 1735, 1972, 1778, 1808, 1852, 1640, 1709, 1532, 1657, 1721, 1706, 1997, 1939, 1856, 1729, 1779, 1914, 2018, 2226, 2047, 1766, 1742, 1766, 1652, 1915, 1989, 1863, 1984, 1827, 1858, 1979, 1737, 1987, 1784, 1815, 1575, 1603, 1872, 2028, 2009, 2045, 1971, 1989, 1971, 1940, 1913, 2052, 2092, 1984, 1935, 1802, 1777, 1730, 1718, 1873, 1770, 2179, 2289, 2134, 2018, 1787, 1747, 1830, 1580, 1886, 2112, 1988, 1943, 1790, 1555, 1690, 1787, 1627, 1634, 1607, 1552, 1600, 2070, 1998, 2041, 1948, 1902, 2050, 1849, 1947, 2047, 1711, 1917, 1637, 1809, 1838, 1837, 2133, 1978, 1917, 2106, 1954, 1867, 1952, 2078, 1889, 1764, 1667, 1824, 1857, 1758, 2067, 1838, 1958, 1868, 1555, 1626, 1838, 1991, 1957, 1967, 1903, 1857, 2013, 1993, 1949, 1956, 1645, 1721, 1942, 1855, 2009, 1937, 1619, 1565, 1803, 2157, 1961, 1806, 1871, 1808, 1980],
      "WindowCenter": [613.0, 611.0, 609.0, 611.0, 612.0, 612.0, 612.0, 611.0, 609.0, 610.0, 611.0, 610.0, 611.0, 612.0, 612.0, 611.0, 612.0, 611.0, 612.0, 612.0, 611.0, 612.0, 613.0, 612.0, 612.0, 614.0, 612.0, 612.0, 614.0, 613.0, 614.0, 613.0, 612.0, 611.0, 612.0, 612.0, 611.0, 613.0, 613.0, 611.0, 612.0, 612.0, 613.0, 613.0, 613.0, 613.0, 615.0, 614.0, 613.0, 614.0, 614.0, 613.0, 614.0, 615.0, 614.0, 615.0, 615.0, 613.0, 614.0, 615.0, 612.0, 612.0, 612.0, 612.0, 614.0, 612.0, 614.0, 612.0, 614.0, 614.0, 612.0, 614.0, 615.0, 612.0, 613.0, 612.0, 615.0, 615.0, 613.0, 615.0, 614.0, 615.0, 617.0, 616.0, 614.0, 615.0, 617.0, 615.0, 615.0, 616.0, 617.0, 618.0, 617.0, 614.0, 615.0, 615.0, 613.0, 616.0, 616.0, 614.0, 615.0, 614.0, 614.0, 616.0, 614.0, 617.0, 617.0, 615.0, 616.0, 616.0, 615.0, 617.0, 616.0, 618.0, 619.0, 616.0, 617.0, 616.0, 616.0, 619.0, 619.0, 618.0, 617.0, 615.0, 617.0, 618.0, 618.0, 618.0, 616.0, 617.0, 617.0, 616.0, 617.0, 617.0, 617.0, 618.0, 618.0, 619.0, 618.0, 616.0, 615.0, 616.0, 616.0, 615.0, 616.0, 616.0, 617.0, 618.0, 616.0, 619.0, 619.0, 619.0, 620.0, 619.0, 617.0, 620.0, 617.0, 616.0, 617.0, 617.0, 618.0, 620.0, 619.0, 618.0, 619.0, 617.0, 618.0, 617.0, 617.0, 618.0, 617.0, 619.0, 619.0, 620.0, 620.0, 621.0, 620.0, 619.0, 622.0, 623.0, 622.0, 622.0, 620.0, 618.0, 619.0, 619.0, 619.0, 621.0, 621.0, 619.0, 620.0, 618.0, 619.0, 620.0, 619.0, 621.0, 619.0, 620.0, 617.0, 619.0, 621.0, 623.0, 622.0, 622.0, 620.0, 620.0, 620.0, 619.0, 620.0, 622.0, 620.0, 620.0, 619.0, 619.0, 620.0, 620.0, 622.0, 622.0, 622.0, 625.0, 624.0, 621.0, 620.0, 618.0, 619.0, 620.0, 619.0, 623.0, 624.0, 622.0, 621.0, 619.0, 619.0, 621.0, 621.0, 620.0, 621.0, 619.0, 620.0, 621.0, 624.0, 623.0, 622.0, 620.0, 620.0, 621.0, 619.0, 620.0, 620.0, 618.0, 620.0, 619.0, 622.0, 622.0, 623.0, 624.0, 622.0, 620.0, 621.0, 620.0, 619.0, 621.0, 621.0, 620.0, 619.0, 619.0, 622.0, 622.0, 621.0, 623.0, 621.0, 622.0, 621.0, 620.0, 621.0, 622.0, 625.0, 625.0, 625.0, 624.0, 624.0, 625.0, 623.0, 623.0, 623.0, 621.0, 623.0, 624.0, 624.0, 624.0, 623.0, 621.0, 621.0, 624.0, 626.0, 623.0, 623.0, 623.0, 623.0, 623.0],
      "WindowWidth": [1298.0, 1292.0, 1288.0, 1292.0, 1294.0, 1294.0, 1294.0, 1293.0, 1288.0, 1290.0, 1291.0, 1290.0, 1293.0, 1295.0, 1293.0, 1292.0, 1294.0, 1292.0, 1294.0, 1294.0, 1293.0, 1295.0, 1297.0, 1295.0, 1296.0, 1298.0, 1295.0, 1295.0, 1298.0, 1297.0, 1300.0, 1298.0, 1294.0, 1293.0, 1295.0, 1295.0, 1293.0, 1297.0, 1297.0, 1293.0, 1294.0, 1296.0, 1297.0, 1297.0, 1297.0, 1297.0, 1301.0, 1300.0, 1296.0, 1298.0, 1300.0, 1296.0, 1300.0, 1302.0, 1299.0, 1301.0, 1301.0, 1297.0, 1300.0, 1301.0, 1296.0, 1295.0, 1295.0, 1294.0, 1300.0, 1294.0, 1299.0, 1294.0, 1298.0, 1300.0, 1295.0, 1300.0, 1300.0, 1295.0, 1297.0, 1296.0, 1302.0, 1301.0, 1297.0, 1301.0, 1299.0, 1302.0, 1307.0, 1303.0, 1301.0, 1303.0, 1306.0, 1302.0, 1302.0, 1304.0, 1306.0, 1309.0, 1305.0, 1300.0, 1302.0, 1301.0, 1298.0, 1304.0, 1305.0, 1300.0, 1301.0, 1300.0, 1301.0, 1304.0, 1299.0, 1306.0, 1307.0, 1301.0, 1304.0, 1303.0, 1303.0, 1306.0, 1305.0, 1310.0, 1311.0, 1305.0, 1307.0, 1305.0, 1305.0, 1311.0, 1310.0, 1309.0, 1307.0, 1303.0, 1306.0, 1309.0, 1309.0, 1308.0, 1304.0, 1306.0, 1307.0, 1305.0, 1307.0, 1306.0, 1307.0, 1309.0, 1309.0, 1310.0, 1310.0, 1304.0, 1301.0, 1304.0, 1304.0, 1303.0, 1304.0, 1304.0, 1307.0, 1308.0, 1306.0, 1311.0, 1311.0, 1311.0, 1313.0, 1312.0, 1308.0, 1312.0, 1307.0, 1305.0, 1307.0, 1306.0, 1310.0, 1314.0, 1312.0, 1310.0, 1312.0, 1307.0, 1309.0, 1307.0, 1307.0, 1308.0, 1306.0, 1311.0, 1312.0, 1314.0, 1314.0, 1315.0, 1313.0, 1313.0, 1318.0, 1319.0, 1318.0, 1319.0, 1314.0, 1309.0, 1311.0, 1311.0, 1312.0, 1316.0, 1316.0, 1313.0, 1313.0, 1310.0, 1312.0, 1314.0, 1313.0, 1315.0, 1311.0, 1313.0, 1308.0, 1312.0, 1317.0, 1319.0, 1318.0, 1318.0, 1314.0, 1313.0, 1315.0, 1311.0, 1314.0, 1317.0, 1314.0, 1313.0, 1311.0, 1310.0, 1314.0, 1314.0, 1317.0, 1319.0, 1319.0, 1325.0, 1323.0, 1317.0, 1314.0, 1309.0, 1312.0, 1314.0, 1313.0, 1320.0, 1322.0, 1319.0, 1317.0, 1312.0, 1311.0, 1317.0, 1316.0, 1313.0, 1316.0, 1313.0, 1313.0, 1317.0, 1323.0, 1321.0, 1318.0, 1314.0, 1314.0, 1316.0, 1312.0, 1314.0, 1314.0, 1310.0, 1314.0, 1313.0, 1318.0, 1319.0, 1321.0, 1323.0, 1318.0, 1314.0, 1316.0, 1313.0, 1313.0, 1316.0, 1315.0, 1313.0, 1311.0, 1312.0, 1318.0, 1318.0, 1317.0, 1321.0, 1316.0, 1319.0, 1316.0, 1314.0, 1317.0, 1319.0, 1326.0, 1324.0, 1325.0, 1323.0, 1322.0, 1325.0, 1321.0, 1321.0, 1320.0, 1316.0, 1320.0, 1324.0, 1323.0, 1324.0, 1321.0, 1317.0, 1316.0, 1324.0, 1327.0, 1322.0, 1320.0, 1322.0, 1320.0, 1321.0]
    },
    "slices": {}
  }
}