{
  "AcquisitionMatrixPE": 74,
  "AcquisitionNumber": 1,
  "AcquisitionTime": "12:32:58.537500",
  "BandwidthPerPixelPhaseEncode": 27.579,
  "BaseResolution": 74,
  "BodyPartExamined": "HEAD",
  "CoilString": "t:HEA;HEP",
  "ConversionSoftware": "dcm2niix",
  "ConversionSoftwareVersion": "v1.0.20190410  GCC6.3.0",
  "DerivedVendorReportedEchoSpacing": 0.000489993,
  "DeviceSerialNumber": "35256",
  "DwellTime": 2.4e-06,
  "EchoTime": 0.03,
  "EffectiveEchoSpacing": 0.000489993,
  "FlipAngle": 70,
  "ImageOrientationPatientDICOM": [1, 0, 0, 0, 1, 0],
  "ImageType": [
    "ORIGINAL",
    "PRIMARY",
    "M",
    "ND",
    "NORM",
    "MOSAIC"
],
  "ImagingFrequency": 123.223,
  "InPlanePhaseEncodingDirectionDICOM": "COL",
  "InstitutionAddress": "East_Lee_St._2907_Greensboro_NC_US_27401",
  "InstitutionName": "JSNN",
  "InstitutionalDepartmentName": "Department",
  "MRAcquisitionType": "2D",
  "MagneticFieldStrength": 3,
  "Manufacturer": "Siemens",
  "ManufacturersModelName": "TrioTim",
  "Modality": "MR",
  "PartialFourier": 1,
  "PatientPosition": "HFS",
  "PercentPhaseFOV": 100,
  "PhaseEncodingDirection": "j-",
  "PhaseEncodingSteps": 74,
  "PhaseResolution": 1,
  "PixelBandwidth": 2815,
  "ProcedureStepDescription": "head_Cassidy",
  "ProtocolName": "RestingState",
  "PulseSequenceDetails": "%SiemensSeq%_ep2d_bold",
  "ReceiveCoilName": "HeadMatrix",
  "ReconMatrixPE": 74,
  "RepetitionTime": 2,
  "SAR": 0.11033,
  "ScanOptions": "FS",
  "ScanningSequence": "EP",
  "SequenceName": "_epfid2d1_74",
  "SequenceVariant": "SK",
  "SeriesDescription": "RestingState",
  "SeriesNumber": 3,
  "ShimSetting": [1361, 10696, -8779, 585, -12, 80, 8, 15],
  "SliceThickness": 4,
  "SliceTiming": [1.945, 1.8825, 1.8175, 1.755, 1.6925, 1.63, 1.5675, 1.505, 1.4425, 1.38, 1.3175, 1.255, 1.1925, 1.1275, 1.065, 1.0025, 0.94, 0.8775, 0.815, 0.7525, 0.69, 0.6275, 0.565, 0.5025, 0.4375, 0.375, 0.3125, 0.25, 0.1875, 0.125, 0.0625, 0],
  "SoftwareVersions": "syngo_MR_B19",
  "SpacingBetweenSlices": 4,
  "StationName": "JSNNMRI",
  "TaskName": "rest",
  "TotalReadoutTime": 0.0357695,
  "TxRefAmp": 240.797,
  "dcmmeta_affine": [
    [-2.972972869873047, 0.0, 0.0, 105.18071746826172],
    [0.0, 2.972972869873047, 0.0, -99.47481536865234],
    [0.0, 0.0, 4.0, -37.26631546020508],
    [0.0, 0.0, 0.0, 1.0]
],
  "dcmmeta_reorient_transform": [
    [0.0, -1.0, 0.0, 73.0],
    [1.0, 0.0, 0.0, 0.0],
    [0.0, 0.0, 1.0, 0.0],
    [0.0, 0.0, 0.0, 1.0]
],
  "dcmmeta_shape": [74, 74, 32, 300],
  "dcmmeta_slice_dim": 2,
  "dcmmeta_version": 0.6,
  "global": {
    "const": {
      "AcquisitionMatrix": [74, 0, 0, 74],
      "AngioFlag": "N",
      "BitsAllocated": 16,
      "BitsStored": 12,
      "BodyPartExamined": "HEAD",
      "Columns": 444,
      "EchoNumbers": 1,
      "EchoTime": 30.0,
      "EchoTrainLength": 1,
      "FlipAngle": 70.0,
      "HighBit": 11,
      "ImageOrientationPatient": [1.0, 0.0, 0.0, 0.0, 1.0, 0.0],
      "ImagePositionPatient": [-655.18069982529, -667.5521812439, -37.266315460205],
      "ImageType": [
        "ORIGINAL",
        "PRIMARY",
        "M",
        "ND",
        "NORM",
        "MOSAIC"
],
      "ImagedNucleus": "1H",
      "ImagingFrequency": 123.223179,
      "InPlanePhaseEncodingDirection": "COL",
      "MRAcquisitionType": "2D",
      "MagneticFieldStrength": 3.0,
      "Manufacturer": "SIEMENS",
      "ManufacturerModelName": "TrioTim",
      "Modality": "MR",
      "NumberOfAverages": 1.0,
      "NumberOfPhaseEncodingSteps": 74,
      "PercentPhaseFieldOfView": 100.0,
      "PercentSampling": 100.0,
      "PerformedProcedureStepStartTime": "120957.140000",
      "PhotometricInterpretation": "MONOCHROME2",
      "PixelBandwidth": 2815.0,
      "PixelRepresentation": 0,
      "PixelSpacing": [2.972972869873, 2.972972869873],
      "ProtocolName": "RestingState",
      "RepetitionTime": 2000.0,
      "Rows": 444,
      "SAR": 0.11032950316372,
      "SamplesPerPixel": 1,
      "ScanOptions": "FS",
      "ScanningSequence": "EP",
      "SequenceName": "*epfid2d1_74",
      "SequenceVariant": "SK",
      "SeriesDescription": "RestingState",
      "SeriesNumber": 3,
      "SeriesTime": "123339.437000",
      "SliceLocation": -37.266315460205,
      "SliceThickness": 4.0,
      "SmallestImagePixelValue": 0,
      "SoftwareVersions": "syngo MR B19",
      "SpacingBetweenSlices": 4.0000001230548,
      "SpecificCharacterSet": "ISO_IR 100",
      "StudyID": "1",
      "StudyTime": "120957.109000",
      "TransmitCoilName": "Body",
      "VariableFlipAngleFlag": "N",
      "WindowCenterWidthExplanation": "Algo1",
      "dBdt": 0.0},
    "slices": {}
  },
  "time": {
    "samples": {
      "AcquisitionNumber": [1, 2, 3, 4, 5, 6, 7, 8, 9, 10, 11, 12, 13, 14, 15, 16, 17, 18, 19, 20, 21, 22, 23, 24, 25, 26, 27, 28, 29, 30, 31, 32, 33, 34, 35, 36, 37, 38, 39, 40, 41, 42, 43, 44, 45, 46, 47, 48, 49, 50, 51, 52, 53, 54, 55, 56, 57, 58, 59, 60, 61, 62, 63, 64, 65, 66, 67, 68, 69, 70, 71, 72, 73, 74, 75, 76, 77, 78, 79, 80, 81, 82, 83, 84, 85, 86, 87, 88, 89, 90, 91, 92, 93, 94, 95, 96, 97, 98, 99, 100, 101, 102, 103, 104, 105, 106, 107, 108, 109, 110, 111, 112, 113, 114, 115, 116, 117, 118, 119, 120, 121, 122, 123, 124, 125, 126, 127, 128, 129, 130, 131, 132, 133, 134, 135, 136, 137, 138, 139, 140, 141, 142, 143, 144, 145, 146, 147, 148, 149, 150, 151, 152, 153, 154, 155, 156, 157, 158, 159, 160, 161, 162, 163, 164, 165, 166, 167, 168, 169, 170, 171, 172, 173, 174, 175, 176, 177, 178, 179, 180, 181, 182, 183, 184, 185, 186, 187, 188, 189, 190, 191, 192, 193, 194, 195, 196, 197, 198, 199, 200, 201, 202, 203, 204, 205, 206, 207, 208, 209, 210, 211, 212, 213, 214, 215, 216, 217, 218, 219, 220, 221, 222, 223, 224, 225, 226, 227, 228, 229, 230, 231, 232, 233, 234, 235, 236, 237, 238, 239, 240, 241, 242, 243, 244, 245, 246, 247, 248, 249, 250, 251, 252, 253, 254, 255, 256, 257, 258, 259, 260, 261, 262, 263, 264, 265, 266, 267, 268, 269, 270, 271, 272, 273, 274, 275, 276, 277, 278, 279, 280, 281, 282, 283, 284, 285, 286, 287, 288, 289, 290, 291, 292, 293, 294, 295, 296, 297, 298, 299, 300],
      "AcquisitionTime": ["123258.537500", "123300.545000", "123302.552500", "123304.560000", "123306.570000", "123308.577500", "123310.585000", "123312.592500", "123314.600000", "123316.610000", "123318.617500", "123320.625000", "123322.632500", "123324.640000", "123326.650000", "123328.657500", "123330.665000", "123332.672500", "123334.680000", "123336.690000", "123338.697500", "123340.705000", "123342.712500", "123344.722500", "123346.730000", "123348.737500", "123350.745000", "123352.752500", "123354.762500", "123356.770000", "123358.777500", "123400.785000", "123402.792500", "123404.802500", "123406.810000", "123408.817500", "123410.825000", "123412.835000", "123414.842500", "123416.850000", "123418.857500", "123420.865000", "123422.875000", "123424.882500", "123426.890000", "123428.897500", "123430.905000", "123432.915000", "123434.922500", "123436.930000", "123438.937500", "123440.947500", "123442.955000", "123444.962500", "123446.970000", "123448.977500", "123450.987500", "123452.995000", "123455.002500", "123457.010000", "123459.017500", "123501.027500", "123503.035000", "123505.042500", "123507.050000", "123509.057500", "123511.067500", "123513.075000", "123515.082500", "123517.090000", "123519.100000", "123521.107500", "123523.115000", "123525.122500", "123527.130000", "123529.140000", "123531.147500", "123533.155000", "123535.162500", "123537.170000", "123539.180000", "123541.187500", "123543.195000", "123545.202500", "123547.212500", "123549.220000", "123551.227500", "123553.235000", "123555.242500", "123557.252500", "123559.260000", "123601.267500", "123603.275000", "123605.282500", "123607.292500", "123609.300000", "123611.307500", "123613.315000", "123615.325000", "123617.332500", "123619.340000", "123621.347500", "123623.355000", "123625.365000", "123627.372500", "123629.380000", "123631.387500", "123633.395000", "123635.405000", "123637.412500", "123639.420000", "123641.427500", "123643.435000", "123645.445000", "123647.452500", "123649.460000", "123651.467500", "123653.477500", "123655.485000", "123657.492500", "123659.500000", "123701.507500", "123703.517500", "123705.525000", "123707.532500", "123709.540000", "123711.547500", "123713.557500", "123715.565000", "123717.572500", "123719.580000", "123721.590000", "123723.597500", "123725.605000", "123727.612500", "123729.620000", "123731.630000", "123733.637500", "123735.645000", "123737.652500", "123739.660000", "123741.670000", "123743.677500", "123745.685000", "123747.692500", "123749.702500", "123751.710000", "123753.717500", "123755.725000", "123757.732500", "123759.742500", "123801.750000", "123803.757500", "123805.765000", "123807.772500", "123809.782500", "123811.790000", "123813.797500", "123815.805000", "123817.812500", "123819.822500", "123821.830000", "123823.837500", "123825.845000", "123827.855000", "123829.862500", "123831.870000", "123833.877500", "123835.885000", "123837.895000", "123839.902500", "123841.910000", "123843.917500", "123845.925000", "123847.935000", "123849.942500", "123851.950000", "123853.957500", "123855.967500", "123857.975000", "123859.982500", "123901.990000", "123903.997500", "123906.007500", "123908.015000", "123910.022500", "123912.030000", "123914.037500", "123916.047500", "123918.055000", "123920.062500", "123922.070000", "123924.080000", "123926.087500", "123928.095000", "123930.102500", "123932.110000", "123934.120000", "123936.127500", "123938.135000", "123940.142500", "123942.150000", "123944.160000", "123946.167500", "123948.175000", "123950.182500", "123952.190000", "123954.200000", "123956.207500", "123958.215000", "124000.222500", "124002.232500", "124004.240000", "124006.247500", "124008.255000", "124010.262500", "124012.272500", "124014.280000", "124016.287500", "124018.295000", "124020.302500", "124022.312500", "124024.320000", "124026.327500", "124028.335000", "124030.345000", "124032.352500", "124034.360000", "124036.367500", "124038.375000", "124040.385000", "124042.392500", "124044.400000", "124046.407500", "124048.415000", "124050.425000", "124052.432500", "124054.440000", "124056.447500", "124058.457500", "124100.465000", "124102.472500", "124104.480000", "124106.487500", "124108.497500", "124110.505000", "124112.512500", "124114.520000", "124116.527500", "124118.537500", "124120.545000", "124122.552500", "124124.560000", "124126.570000", "124128.577500", "124130.585000", "124132.592500", "124134.600000", "124136.610000", "124138.617500", "124140.625000", "124142.632500", "124144.640000", "124146.650000", "124148.657500", "124150.665000", "124152.672500", "124154.680000", "124156.690000", "124158.697500", "124200.705000", "124202.712500", "124204.722500", "124206.730000", "124208.737500", "124210.745000", "124212.752500", "124214.762500", "124216.770000", "124218.777500", "124220.785000", "124222.792500", "124224.802500", "124226.810000", "124228.817500", "124230.825000", "124232.835000", "124234.842500", "124236.850000", "124238.857500", "124240.865000", "124242.875000", "124244.882500", "124246.890000", "124248.897500", "124250.905000", "124252.915000", "124254.922500", "124256.930000", "124258.937500"],
      "ContentTime": ["123339.437000", "123339.437000", "123339.437000", "123339.437000", "123339.453000", "123339.453000", "123339.453000", "123339.453000", "123339.468000", "123339.468000", "123339.468000", "123339.468000", "123339.468000", "123339.468000", "123339.468000", "123339.468000", "123339.484000", "123339.484000", "123339.484000", "123339.484000", "123339.484000", "123419.421000", "123419.421000", "123419.421000", "123419.421000", "123419.421000", "123419.421000", "123419.437000", "123419.437000", "123419.437000", "123419.437000", "123419.437000", "123419.437000", "123419.437000", "123419.437000", "123419.453000", "123419.453000", "123419.453000", "123419.453000", "123419.453000", "123419.453000", "123459.421000", "123459.421000", "123459.421000", "123459.421000", "123459.421000", "123459.421000", "123459.437000", "123459.437000", "123459.437000", "123459.437000", "123459.437000", "123459.453000", "123459.453000", "123459.453000", "123459.453000", "123459.453000", "123459.453000", "123459.453000", "123459.468000", "123459.468000", "123539.421000", "123539.421000", "123539.421000", "123539.421000", "123539.421000", "123539.421000", "123539.437000", "123539.437000", "123539.437000", "123539.437000", "123539.437000", "123539.437000", "123539.437000", "123539.453000", "123539.453000", "123539.453000", "123539.453000", "123539.453000", "123539.453000", "123539.453000", "123619.421000", "123619.421000", "123619.421000", "123619.421000", "123619.421000", "123619.437000", "123619.437000", "123619.437000", "123619.453000", "123619.453000", "123619.453000", "123619.453000", "123619.453000", "123619.453000", "123619.453000", "123619.453000", "123619.468000", "123619.468000", "123619.468000", "123619.468000", "123659.421000", "123659.421000", "123659.421000", "123659.421000", "123659.421000", "123659.421000", "123659.437000", "123659.437000", "123659.437000", "123659.437000", "123659.437000", "123659.437000", "123659.437000", "123659.453000", "123659.453000", "123659.453000", "123659.453000", "123659.453000", "123659.453000", "123659.453000", "123739.421000", "123739.421000", "123739.421000", "123739.421000", "123739.421000", "123739.421000", "123739.437000", "123739.437000", "123739.437000", "123739.437000", "123739.437000", "123739.437000", "123739.437000", "123739.453000", "123739.453000", "123739.453000", "123739.453000", "123739.453000", "123739.453000", "123739.453000", "123819.421000", "123819.421000", "123819.421000", "123819.421000", "123819.421000", "123819.421000", "123819.437000", "123819.437000", "123819.437000", "123819.437000", "123819.437000", "123819.437000", "123819.437000", "123819.453000", "123819.453000", "123819.453000", "123819.453000", "123819.453000", "123819.453000", "123819.468000", "123859.421000", "123859.421000", "123859.421000", "123859.421000", "123859.421000", "123859.437000", "123859.437000", "123859.437000", "123859.453000", "123859.453000", "123859.453000", "123859.453000", "123859.453000", "123859.453000", "123859.453000", "123859.468000", "123859.468000", "123859.468000", "123859.468000", "123859.484000", "123939.421000", "123939.421000", "123939.437000", "123939.437000", "123939.437000", "123939.437000", "123939.437000", "123939.453000", "123939.453000", "123939.453000", "123939.453000", "123939.453000", "123939.453000", "123939.468000", "123939.468000", "123939.468000", "123939.468000", "123939.468000", "123939.484000", "123939.484000", "124019.421000", "124019.421000", "124019.421000", "124019.421000", "124019.421000", "124019.437000", "124019.437000", "124019.437000", "124019.437000", "124019.437000", "124019.437000", "124019.437000", "124019.437000", "124019.453000", "124019.453000", "124019.453000", "124019.453000", "124019.453000", "124019.453000", "124019.468000", "124059.421000", "124059.421000", "124059.421000", "124059.421000", "124059.421000", "124059.437000", "124059.437000", "124059.437000", "124059.437000", "124059.437000", "124059.437000", "124059.437000", "124059.437000", "124059.453000", "124059.453000", "124059.453000", "124059.453000", "124059.453000", "124059.453000", "124059.453000", "124139.421000", "124139.421000", "124139.421000", "124139.421000", "124139.421000", "124139.437000", "124139.437000", "124139.437000", "124139.437000", "124139.437000", "124139.437000", "124139.437000", "124139.453000", "124139.453000", "124139.453000", "124139.453000", "124139.453000", "124139.453000", "124139.453000", "124139.468000", "124219.421000", "124219.421000", "124219.421000", "124219.421000", "124219.421000", "124219.437000", "124219.437000", "124219.437000", "124219.437000", "124219.437000", "124219.437000", "124219.437000", "124219.453000", "124219.453000", "124219.453000", "124219.453000", "124219.453000", "124219.453000", "124219.468000", "124219.468000", "124257.281000", "124257.281000", "124257.281000", "124257.281000", "124257.281000", "124257.296000", "124257.296000", "124257.296000", "124257.296000", "124257.296000", "124257.296000", "124257.296000", "124257.312000", "124257.312000", "124257.312000", "124257.312000", "124257.312000", "124257.328000", "124257.328000"],
      "InstanceCreationTime": ["123339.437000", "123339.437000", "123339.437000", "123339.437000", "123339.453000", "123339.453000", "123339.453000", "123339.453000", "123339.468000", "123339.468000", "123339.468000", "123339.468000", "123339.468000", "123339.468000", "123339.468000", "123339.468000", "123339.484000", "123339.484000", "123339.484000", "123339.484000", "123339.484000", "123419.421000", "123419.421000", "123419.421000", "123419.421000", "123419.421000", "123419.421000", "123419.437000", "123419.437000", "123419.437000", "123419.437000", "123419.437000", "123419.437000", "123419.437000", "123419.437000", "123419.453000", "123419.453000", "123419.453000", "123419.453000", "123419.453000", "123419.453000", "123459.421000", "123459.421000", "123459.421000", "123459.421000", "123459.421000", "123459.421000", "123459.437000", "123459.437000", "123459.437000", "123459.437000", "123459.437000", "123459.453000", "123459.453000", "123459.453000", "123459.453000", "123459.453000", "123459.453000", "123459.453000", "123459.468000", "123459.468000", "123539.421000", "123539.421000", "123539.421000", "123539.421000", "123539.421000", "123539.421000", "123539.437000", "123539.437000", "123539.437000", "123539.437000", "123539.437000", "123539.437000", "123539.437000", "123539.453000", "123539.453000", "123539.453000", "123539.453000", "123539.453000", "123539.453000", "123539.453000", "123619.421000", "123619.421000", "123619.421000", "123619.421000", "123619.421000", "123619.437000", "123619.437000", "123619.437000", "123619.453000", "123619.453000", "123619.453000", "123619.453000", "123619.453000", "123619.453000", "123619.453000", "123619.453000", "123619.468000", "123619.468000", "123619.468000", "123619.468000", "123659.421000", "123659.421000", "123659.421000", "123659.421000", "123659.421000", "123659.421000", "123659.437000", "123659.437000", "123659.437000", "123659.437000", "123659.437000", "123659.437000", "123659.437000", "123659.453000", "123659.453000", "123659.453000", "123659.453000", "123659.453000", "123659.453000", "123659.453000", "123739.421000", "123739.421000", "123739.421000", "123739.421000", "123739.421000", "123739.421000", "123739.437000", "123739.437000", "123739.437000", "123739.437000", "123739.437000", "123739.437000", "123739.437000", "123739.453000", "123739.453000", "123739.453000", "123739.453000", "123739.453000", "123739.453000", "123739.453000", "123819.421000", "123819.421000", "123819.421000", "123819.421000", "123819.421000", "123819.421000", "123819.437000", "123819.437000", "123819.437000", "123819.437000", "123819.437000", "123819.437000", "123819.437000", "123819.453000", "123819.453000", "123819.453000", "123819.453000", "123819.453000", "123819.453000", "123819.468000", "123859.421000", "123859.421000", "123859.421000", "123859.421000", "123859.421000", "123859.437000", "123859.437000", "123859.437000", "123859.453000", "123859.453000", "123859.453000", "123859.453000", "123859.453000", "123859.453000", "123859.453000", "123859.468000", "123859.468000", "123859.468000", "123859.468000", "123859.484000", "123939.421000", "123939.421000", "123939.437000", "123939.437000", "123939.437000", "123939.437000", "123939.437000", "123939.453000", "123939.453000", "123939.453000", "123939.453000", "123939.453000", "123939.453000", "123939.468000", "123939.468000", "123939.468000", "123939.468000", "123939.468000", "123939.484000", "123939.484000", "124019.421000", "124019.421000", "124019.421000", "124019.421000", "124019.421000", "124019.437000", "124019.437000", "124019.437000", "124019.437000", "124019.437000", "124019.437000", "124019.437000", "124019.437000", "124019.453000", "124019.453000", "124019.453000", "124019.453000", "124019.453000", "124019.453000", "124019.468000", "124059.421000", "124059.421000", "124059.421000", "124059.421000", "124059.421000", "124059.437000", "124059.437000", "124059.437000", "124059.437000", "124059.437000", "124059.437000", "124059.437000", "124059.437000", "124059.453000", "124059.453000", "124059.453000", "124059.453000", "124059.453000", "124059.453000", "124059.453000", "124139.421000", "124139.421000", "124139.421000", "124139.421000", "124139.421000", "124139.437000", "124139.437000", "124139.437000", "124139.437000", "124139.437000", "124139.437000", "124139.437000", "124139.453000", "124139.453000", "124139.453000", "124139.453000", "124139.453000", "124139.453000", "124139.453000", "124139.468000", "124219.421000", "124219.421000", "124219.421000", "124219.421000", "124219.421000", "124219.437000", "124219.437000", "124219.437000", "124219.437000", "124219.437000", "124219.437000", "124219.437000", "124219.453000", "124219.453000", "124219.453000", "124219.453000", "124219.453000", "124219.453000", "124219.468000", "124219.468000", "124257.281000", "124257.281000", "124257.281000", "124257.281000", "124257.281000", "124257.296000", "124257.296000", "124257.296000", "124257.296000", "124257.296000", "124257.296000", "124257.296000", "124257.312000", "124257.312000", "124257.312000", "124257.312000", "124257.312000", "124257.328000", "124257.328000"],
      "InstanceNumber": [1, 2, 3, 4, 5, 6, 7, 8, 9, 10, 11, 12, 13, 14, 15, 16, 17, 18, 19, 20, 21, 22, 23, 24, 25, 26, 27, 28, 29, 30, 31, 32, 33, 34, 35, 36, 37, 38, 39, 40, 41, 42, 43, 44, 45, 46, 47, 48, 49, 50, 51, 52, 53, 54, 55, 56, 57, 58, 59, 60, 61, 62, 63, 64, 65, 66, 67, 68, 69, 70, 71, 72, 73, 74, 75, 76, 77, 78, 79, 80, 81, 82, 83, 84, 85, 86, 87, 88, 89, 90, 91, 92, 93, 94, 95, 96, 97, 98, 99, 100, 101, 102, 103, 104, 105, 106, 107, 108, 109, 110, 111, 112, 113, 114, 115, 116, 117, 118, 119, 120, 121, 122, 123, 124, 125, 126, 127, 128, 129, 130, 131, 132, 133, 134, 135, 136, 137, 138, 139, 140, 141, 142, 143, 144, 145, 146, 147, 148, 149, 150, 151, 152, 153, 154, 155, 156, 157, 158, 159, 160, 161, 162, 163, 164, 165, 166, 167, 168, 169, 170, 171, 172, 173, 174, 175, 176, 177, 178, 179, 180, 181, 182, 183, 184, 185, 186, 187, 188, 189, 190, 191, 192, 193, 194, 195, 196, 197, 198, 199, 200, 201, 202, 203, 204, 205, 206, 207, 208, 209, 210, 211, 212, 213, 214, 215, 216, 217, 218, 219, 220, 221, 222, 223, 224, 225, 226, 227, 228, 229, 230, 231, 232, 233, 234, 235, 236, 237, 238, 239, 240, 241, 242, 243, 244, 245, 246, 247, 248, 249, 250, 251, 252, 253, 254, 255, 256, 257, 258, 259, 260, 261, 262, 263, 264, 265, 266, 267, 268, 269, 270, 271, 272, 273, 274, 275, 276, 277, 278, 279, 280, 281, 282, 283, 284, 285, 286, 287, 288, 289, 290, 291, 292, 293, 294, 295, 296, 297, 298, 299, 300],
      "LargestImagePixelValue": [1918, 1736, 1747, 1855, 1672, 1883, 1731, 1887, 1753, 1882, 1769, 1886, 1812, 1907, 1677, 1832, 1772, 1811, 1822, 1767, 1859, 1756, 1867, 1731, 1738, 1815, 1801, 1821, 1732, 1843, 1878, 1727, 1866, 1869, 1676, 1747, 1866, 1799, 1847, 1777, 1764, 1827, 1899, 1744, 1870, 1775, 1819, 1761, 1783, 1791, 1832, 1874, 1743, 1779, 1883, 1785, 1864, 1941, 1926, 1688, 1742, 1760, 1862, 1934, 1811, 1713, 1716, 1704, 1726, 1850, 1701, 1701, 1779, 1921, 1834, 1708, 1815, 1907, 1748, 1828, 1923, 1845, 1765, 1864, 1921, 1786, 1784, 1782, 1889, 1946, 1893, 1920, 1827, 1790, 1753, 1725, 1722, 1711, 1740, 1801, 1919, 1885, 1931, 1676, 1839, 1714, 1690, 1786, 1822, 1931, 1946, 1926, 1843, 1729, 1839, 1888, 1789, 1819, 1865, 1789, 1728, 1835, 1932, 1686, 1729, 1834, 1884, 1704, 1797, 1858, 1762, 1780, 1941, 1691, 1753, 1882, 1879, 1769, 1746, 1823, 1838, 1686, 1741, 1839, 1879, 1786, 1898, 1894, 1781, 1727, 1808, 1847, 1753, 1736, 1780, 1885, 2004, 1717, 1778, 1904, 1714, 1789, 1866, 1902, 1936, 1912, 1889, 1892, 2027, 1715, 1704, 1725, 1785, 1892, 1937, 1867, 1743, 1756, 1794, 1793, 1863, 1948, 1689, 1818, 2044, 1910, 1692, 1739, 1839, 1892, 1733, 1846, 1926, 1812, 1729, 1841, 1946, 1705, 1735, 1818, 1889, 1714, 1766, 1815, 1903, 1778, 1720, 1771, 1828, 1861, 1725, 1782, 1758, 1831, 1879, 1703, 1786, 1826, 2012, 1758, 1735, 1815, 1995, 1710, 1831, 1780, 1781, 1928, 1765, 1719, 1817, 1906, 1713, 1759, 1999, 1989, 1858, 1692, 1783, 1699, 1760, 1819, 1879, 1954, 1942, 2224, 1697, 1748, 1769, 2003, 2018, 1829, 1745, 1734, 1899, 1933, 1966, 1953, 1915, 1946, 1707, 1780, 1769, 1775, 1836, 1840, 1920, 1853, 1820, 1770, 1846, 1970, 2024, 1685, 1729, 1828, 1811, 1850, 1975, 1767, 1769, 1935, 2016, 1781, 1785, 1842, 1979, 1745, 1735, 2028, 2061, 1753, 1723, 2067, 1905, 1813, 1695, 1813, 1962, 1700],
      "WindowCenter": [660.0, 657.0, 655.0, 655.0, 654.0, 655.0, 655.0, 656.0, 655.0, 656.0, 655.0, 657.0, 656.0, 656.0, 654.0, 655.0, 655.0, 656.0, 656.0, 656.0, 657.0, 656.0, 656.0, 656.0, 656.0, 657.0, 658.0, 657.0, 656.0, 656.0, 656.0, 655.0, 658.0, 658.0, 656.0, 656.0, 657.0, 657.0, 658.0, 658.0, 657.0, 656.0, 657.0, 657.0, 657.0, 657.0, 656.0, 656.0, 655.0, 657.0, 657.0, 656.0, 655.0, 655.0, 655.0, 656.0, 656.0, 656.0, 655.0, 654.0, 654.0, 655.0, 656.0, 656.0, 656.0, 656.0, 657.0, 656.0, 655.0, 658.0, 659.0, 659.0, 659.0, 660.0, 660.0, 659.0, 660.0, 660.0, 660.0, 661.0, 661.0, 660.0, 660.0, 660.0, 658.0, 658.0, 659.0, 658.0, 658.0, 657.0, 657.0, 658.0, 658.0, 657.0, 657.0, 657.0, 658.0, 657.0, 657.0, 659.0, 660.0, 659.0, 659.0, 660.0, 660.0, 659.0, 658.0, 659.0, 660.0, 660.0, 660.0, 660.0, 660.0, 660.0, 662.0, 662.0, 663.0, 663.0, 663.0, 662.0, 661.0, 661.0, 661.0, 660.0, 661.0, 662.0, 662.0, 662.0, 661.0, 662.0, 661.0, 661.0, 660.0, 660.0, 660.0, 661.0, 661.0, 660.0, 660.0, 661.0, 661.0, 661.0, 661.0, 661.0, 662.0, 662.0, 662.0, 662.0, 660.0, 660.0, 661.0, 662.0, 662.0, 661.0, 661.0, 661.0, 662.0, 661.0, 661.0, 662.0, 661.0, 662.0, 662.0, 661.0, 662.0, 663.0, 662.0, 662.0, 662.0, 662.0, 662.0, 662.0, 663.0, 664.0, 664.0, 664.0, 663.0, 663.0, 664.0, 664.0, 664.0, 663.0, 661.0, 664.0, 665.0, 663.0, 662.0, 661.0, 662.0, 662.0, 662.0, 662.0, 662.0, 661.0, 661.0, 662.0, 662.0, 661.0, 660.0, 661.0, 662.0, 662.0, 662.0, 662.0, 663.0, 663.0, 662.0, 662.0, 663.0, 664.0, 664.0, 664.0, 663.0, 663.0, 663.0, 664.0, 664.0, 664.0, 665.0, 664.0, 663.0, 664.0, 664.0, 663.0, 664.0, 664.0, 664.0, 665.0, 664.0, 663.0, 664.0, 665.0, 663.0, 664.0, 665.0, 665.0, 663.0, 662.0, 663.0, 663.0, 664.0, 664.0, 665.0, 665.0, 665.0, 665.0, 663.0, 664.0, 664.0, 665.0, 665.0, 663.0, 662.0, 664.0, 665.0, 664.0, 665.0, 665.0, 665.0, 664.0, 663.0, 665.0, 666.0, 665.0, 664.0, 664.0, 665.0, 665.0, 666.0, 665.0, 664.0, 665.0, 665.0, 664.0, 665.0, 666.0, 665.0, 665.0, 665.0, 665.0, 666.0, 666.0, 665.0, 664.0, 664.0, 665.0, 665.0, 665.0, 665.0, 666.0, 665.0, 663.0, 664.0, 666.0, 665.0, 664.0, 663.0, 664.0, 665.0, 664.0],
      "WindowWidth": [1414.0, 1405.0, 1401.0, 1400.0, 1397.0, 1402.0, 1401.0, 1402.0, 1402.0, 1402.0, 1401.0, 1405.0, 1403.0, 1403.0, 1398.0, 1401.0, 1400.0, 1402.0, 1402.0, 1402.0, 1406.0, 1403.0, 1402.0, 1404.0, 1403.0, 1405.0, 1408.0, 1406.0, 1404.0, 1402.0, 1402.0, 1401.0, 1407.0, 1408.0, 1404.0, 1403.0, 1406.0, 1405.0, 1407.0, 1409.0, 1405.0, 1404.0, 1406.0, 1405.0, 1407.0, 1404.0, 1404.0, 1404.0, 1401.0, 1405.0, 1405.0, 1404.0, 1400.0, 1400.0, 1402.0, 1404.0, 1403.0, 1403.0, 1402.0, 1399.0, 1399.0, 1401.0, 1403.0, 1403.0, 1403.0, 1404.0, 1405.0, 1402.0, 1400.0, 1407.0, 1410.0, 1411.0, 1410.0, 1412.0, 1413.0, 1410.0, 1412.0, 1414.0, 1414.0, 1416.0, 1416.0, 1414.0, 1413.0, 1413.0, 1409.0, 1408.0, 1410.0, 1408.0, 1407.0, 1407.0, 1407.0, 1407.0, 1407.0, 1407.0, 1406.0, 1407.0, 1407.0, 1407.0, 1407.0, 1410.0, 1413.0, 1411.0, 1410.0, 1413.0, 1412.0, 1411.0, 1408.0, 1411.0, 1413.0, 1414.0, 1414.0, 1414.0, 1413.0, 1414.0, 1419.0, 1418.0, 1420.0, 1421.0, 1422.0, 1419.0, 1417.0, 1416.0, 1416.0, 1414.0, 1417.0, 1418.0, 1419.0, 1418.0, 1417.0, 1418.0, 1417.0, 1415.0, 1414.0, 1413.0, 1414.0, 1416.0, 1417.0, 1414.0, 1414.0, 1417.0, 1417.0, 1415.0, 1415.0, 1416.0, 1418.0, 1418.0, 1419.0, 1418.0, 1414.0, 1413.0, 1417.0, 1418.0, 1418.0, 1416.0, 1416.0, 1417.0, 1420.0, 1416.0, 1417.0, 1418.0, 1417.0, 1419.0, 1418.0, 1416.0, 1418.0, 1421.0, 1420.0, 1419.0, 1418.0, 1417.0, 1419.0, 1418.0, 1420.0, 1423.0, 1424.0, 1424.0, 1422.0, 1422.0, 1425.0, 1424.0, 1424.0, 1420.0, 1416.0, 1423.0, 1425.0, 1422.0, 1417.0, 1417.0, 1418.0, 1419.0, 1417.0, 1419.0, 1419.0, 1416.0, 1415.0, 1418.0, 1419.0, 1416.0, 1415.0, 1416.0, 1418.0, 1419.0, 1418.0, 1420.0, 1421.0, 1421.0, 1418.0, 1419.0, 1420.0, 1423.0, 1423.0, 1424.0, 1422.0, 1420.0, 1421.0, 1423.0, 1424.0, 1424.0, 1426.0, 1423.0, 1422.0, 1423.0, 1424.0, 1422.0, 1425.0, 1424.0, 1423.0, 1425.0, 1424.0, 1422.0, 1423.0, 1425.0, 1422.0, 1424.0, 1427.0, 1425.0, 1422.0, 1419.0, 1421.0, 1420.0, 1423.0, 1425.0, 1426.0, 1426.0, 1425.0, 1426.0, 1422.0, 1423.0, 1423.0, 1426.0, 1425.0, 1422.0, 1419.0, 1423.0, 1426.0, 1424.0, 1425.0, 1426.0, 1426.0, 1424.0, 1422.0, 1427.0, 1428.0, 1426.0, 1423.0, 1423.0, 1426.0, 1427.0, 1427.0, 1425.0, 1424.0, 1426.0, 1427.0, 1425.0, 1425.0, 1428.0, 1427.0, 1425.0, 1425.0, 1426.0, 1429.0, 1428.0, 1426.0, 1424.0, 1424.0, 1426.0, 1427.0, 1425.0, 1427.0, 1429.0, 1427.0, 1422.0, 1424.0, 1429.0, 1427.0, 1424.0, 1422.0, 1424.0, 1427.0, 1424.0]
    },
    "slices": {}
  }
}