{
  "AcquisitionMatrixPE": 74,
  "AcquisitionNumber": 1,
  "AcquisitionTime": "10:25:9.342500",
  "BandwidthPerPixelPhaseEncode": 27.579,
  "BaseResolution": 74,
  "BodyPartExamined": "HEAD",
  "CoilString": "t:HEA;HEP",
  "ConversionSoftware": "dcm2niix",
  "ConversionSoftwareVersion": "v1.0.20190410  GCC6.3.0",
  "DerivedVendorReportedEchoSpacing": 0.000489993,
  "DeviceSerialNumber": "35256",
  "DwellTime": 2.4e-06,
  "EchoTime": 0.03,
  "EffectiveEchoSpacing": 0.000489993,
  "FlipAngle": 70,
  "ImageOrientationPatientDICOM": [1, 0, 0, 0, 1, 0],
  "ImageType": [
    "ORIGINAL",
    "PRIMARY",
    "M",
    "ND",
    "NORM",
    "MOSAIC"
],
  "ImagingFrequency": 123.223,
  "InPlanePhaseEncodingDirectionDICOM": "COL",
  "InstitutionAddress": "East_Lee_St._2907_Greensboro_NC_US_27401",
  "InstitutionName": "JSNN",
  "InstitutionalDepartmentName": "Department",
  "MRAcquisitionType": "2D",
  "MagneticFieldStrength": 3,
  "Manufacturer": "Siemens",
  "ManufacturersModelName": "TrioTim",
  "Modality": "MR",
  "PartialFourier": 1,
  "PatientPosition": "HFS",
  "PercentPhaseFOV": 100,
  "PhaseEncodingDirection": "j-",
  "PhaseEncodingSteps": 74,
  "PhaseResolution": 1,
  "PixelBandwidth": 2815,
  "ProcedureStepDescription": "head_Cassidy",
  "ProtocolName": "RestingState",
  "PulseSequenceDetails": "%SiemensSeq%_ep2d_bold",
  "ReceiveCoilName": "HeadMatrix",
  "ReconMatrixPE": 74,
  "RepetitionTime": 2,
  "SAR": 0.0853541,
  "ScanOptions": "FS",
  "ScanningSequence": "EP",
  "SequenceName": "_epfid2d1_74",
  "SequenceVariant": "SK",
  "SeriesDescription": "RestingState",
  "SeriesNumber": 3,
  "ShimSetting": [1380, 10526, -8994, 98, -197, -300, 318, -116],
  "SliceThickness": 4,
  "SliceTiming": [1.945, 1.88, 1.8175, 1.755, 1.6925, 1.63, 1.5675, 1.505, 1.4425, 1.38, 1.3175, 1.255, 1.19, 1.1275, 1.065, 1.0025, 0.94, 0.8775, 0.815, 0.7525, 0.69, 0.6275, 0.565, 0.5, 0.4375, 0.375, 0.3125, 0.25, 0.1875, 0.125, 0.0625, 0],
  "SoftwareVersions": "syngo_MR_B19",
  "SpacingBetweenSlices": 4,
  "StationName": "JSNNMRI",
  "TaskName": "rest",
  "TotalReadoutTime": 0.0357695,
  "TxRefAmp": 273.17,
  "dcmmeta_affine": [
    [-2.972972869873047, 0.0, 0.0, 105.18071746826172],
    [0.0, 2.972972869873047, 0.0, -101.27762603759766],
    [0.0, 0.0, 4.0, -97.72530364990234],
    [0.0, 0.0, 0.0, 1.0]
],
  "dcmmeta_reorient_transform": [
    [0.0, -1.0, 0.0, 73.0],
    [1.0, 0.0, 0.0, 0.0],
    [0.0, 0.0, 1.0, 0.0],
    [0.0, 0.0, 0.0, 1.0]
],
  "dcmmeta_shape": [74, 74, 32, 300],
  "dcmmeta_slice_dim": 2,
  "dcmmeta_version": 0.6,
  "global": {
    "const": {
      "AcquisitionMatrix": [74, 0, 0, 74],
      "AngioFlag": "N",
      "BitsAllocated": 16,
      "BitsStored": 12,
      "BodyPartExamined": "HEAD",
      "Columns": 444,
      "EchoNumbers": 1,
      "EchoTime": 30.0,
      "EchoTrainLength": 1,
      "FlipAngle": 70.0,
      "HighBit": 11,
      "ImageOrientationPatient": [1.0, 0.0, 0.0, 0.0, 1.0, 0.0],
      "ImagePositionPatient": [-655.18069982529, -665.74937486649, -97.725303649902],
      "ImageType": [
        "ORIGINAL",
        "PRIMARY",
        "M",
        "ND",
        "NORM",
        "MOSAIC"
],
      "ImagedNucleus": "1H",
      "ImagingFrequency": 123.223333,
      "InPlanePhaseEncodingDirection": "COL",
      "MRAcquisitionType": "2D",
      "MagneticFieldStrength": 3.0,
      "Manufacturer": "SIEMENS",
      "ManufacturerModelName": "TrioTim",
      "Modality": "MR",
      "NumberOfAverages": 1.0,
      "NumberOfPhaseEncodingSteps": 74,
      "PercentPhaseFieldOfView": 100.0,
      "PercentSampling": 100.0,
      "PerformedProcedureStepStartTime": "101409.028000",
      "PhotometricInterpretation": "MONOCHROME2",
      "PixelBandwidth": 2815.0,
      "PixelRepresentation": 0,
      "PixelSpacing": [2.972972869873, 2.972972869873],
      "ProtocolName": "RestingState",
      "RepetitionTime": 2000.0,
      "Rows": 444,
      "SAR": 0.08535411146587,
      "SamplesPerPixel": 1,
      "ScanOptions": "FS",
      "ScanningSequence": "EP",
      "SequenceName": "*epfid2d1_74",
      "SequenceVariant": "SK",
      "SeriesDescription": "RestingState",
      "SeriesNumber": 3,
      "SeriesTime": "102555.019000",
      "SliceLocation": -97.725303649902,
      "SliceThickness": 4.0,
      "SmallestImagePixelValue": 0,
      "SoftwareVersions": "syngo MR B19",
      "SpacingBetweenSlices": 4.0000000615274,
      "SpecificCharacterSet": "ISO_IR 100",
      "StudyID": "1",
      "StudyTime": "101408.948000",
      "TransmitCoilName": "Body",
      "VariableFlipAngleFlag": "N",
      "WindowCenterWidthExplanation": "Algo1",
      "dBdt": 0.0},
    "slices": {}
  },
  "time": {
    "samples": {
      "AcquisitionNumber": [1, 2, 3, 4, 5, 6, 7, 8, 9, 10, 11, 12, 13, 14, 15, 16, 17, 18, 19, 20, 21, 22, 23, 24, 25, 26, 27, 28, 29, 30, 31, 32, 33, 34, 35, 36, 37, 38, 39, 40, 41, 42, 43, 44, 45, 46, 47, 48, 49, 50, 51, 52, 53, 54, 55, 56, 57, 58, 59, 60, 61, 62, 63, 64, 65, 66, 67, 68, 69, 70, 71, 72, 73, 74, 75, 76, 77, 78, 79, 80, 81, 82, 83, 84, 85, 86, 87, 88, 89, 90, 91, 92, 93, 94, 95, 96, 97, 98, 99, 100, 101, 102, 103, 104, 105, 106, 107, 108, 109, 110, 111, 112, 113, 114, 115, 116, 117, 118, 119, 120, 121, 122, 123, 124, 125, 126, 127, 128, 129, 130, 131, 132, 133, 134, 135, 136, 137, 138, 139, 140, 141, 142, 143, 144, 145, 146, 147, 148, 149, 150, 151, 152, 153, 154, 155, 156, 157, 158, 159, 160, 161, 162, 163, 164, 165, 166, 167, 168, 169, 170, 171, 172, 173, 174, 175, 176, 177, 178, 179, 180, 181, 182, 183, 184, 185, 186, 187, 188, 189, 190, 191, 192, 193, 194, 195, 196, 197, 198, 199, 200, 201, 202, 203, 204, 205, 206, 207, 208, 209, 210, 211, 212, 213, 214, 215, 216, 217, 218, 219, 220, 221, 222, 223, 224, 225, 226, 227, 228, 229, 230, 231, 232, 233, 234, 235, 236, 237, 238, 239, 240, 241, 242, 243, 244, 245, 246, 247, 248, 249, 250, 251, 252, 253, 254, 255, 256, 257, 258, 259, 260, 261, 262, 263, 264, 265, 266, 267, 268, 269, 270, 271, 272, 273, 274, 275, 276, 277, 278, 279, 280, 281, 282, 283, 284, 285, 286, 287, 288, 289, 290, 291, 292, 293, 294, 295, 296, 297, 298, 299, 300],
      "AcquisitionTime": ["102509.342500", "102511.350000", "102513.357500", "102515.365000", "102517.372500", "102519.382500", "102521.390000", "102523.397500", "102525.405000", "102527.412500", "102529.422500", "102531.430000", "102533.437500", "102535.445000", "102537.455000", "102539.462500", "102541.470000", "102543.477500", "102545.485000", "102547.495000", "102549.502500", "102551.510000", "102553.517500", "102555.525000", "102557.535000", "102559.542500", "102601.550000", "102603.557500", "102605.567500", "102607.575000", "102609.582500", "102611.590000", "102613.597500", "102615.607500", "102617.615000", "102619.622500", "102621.630000", "102623.637500", "102625.647500", "102627.655000", "102629.662500", "102631.670000", "102633.680000", "102635.687500", "102637.695000", "102639.702500", "102641.710000", "102643.720000", "102645.727500", "102647.735000", "102649.742500", "102651.750000", "102653.760000", "102655.767500", "102657.775000", "102659.782500", "102701.792500", "102703.800000", "102705.807500", "102707.815000", "102709.822500", "102711.832500", "102713.840000", "102715.847500", "102717.855000", "102719.862500", "102721.872500", "102723.880000", "102725.887500", "102727.895000", "102729.902500", "102731.912500", "102733.920000", "102735.927500", "102737.935000", "102739.945000", "102741.952500", "102743.960000", "102745.967500", "102747.975000", "102749.985000", "102751.992500", "102754.000000", "102756.007500", "102758.015000", "102800.025000", "102802.032500", "102804.040000", "102806.047500", "102808.057500", "102810.065000", "102812.072500", "102814.080000", "102816.087500", "102818.097500", "102820.105000", "102822.112500", "102824.120000", "102826.127500", "102828.137500", "102830.145000", "102832.152500", "102834.160000", "102836.170000", "102838.177500", "102840.185000", "102842.192500", "102844.200000", "102846.210000", "102848.217500", "102850.225000", "102852.232500", "102854.240000", "102856.250000", "102858.257500", "102900.265000", "102902.272500", "102904.280000", "102906.290000", "102908.297500", "102910.305000", "102912.312500", "102914.322500", "102916.330000", "102918.337500", "102920.345000", "102922.352500", "102924.362500", "102926.370000", "102928.377500", "102930.385000", "102932.392500", "102934.402500", "102936.410000", "102938.417500", "102940.425000", "102942.435000", "102944.442500", "102946.450000", "102948.457500", "102950.465000", "102952.475000", "102954.482500", "102956.490000", "102958.497500", "103000.505000", "103002.515000", "103004.522500", "103006.530000", "103008.537500", "103010.547500", "103012.555000", "103014.562500", "103016.570000", "103018.577500", "103020.587500", "103022.595000", "103024.602500", "103026.610000", "103028.617500", "103030.627500", "103032.635000", "103034.642500", "103036.650000", "103038.657500", "103040.667500", "103042.675000", "103044.682500", "103046.690000", "103048.700000", "103050.707500", "103052.715000", "103054.722500", "103056.730000", "103058.740000", "103100.747500", "103102.755000", "103104.762500", "103106.770000", "103108.780000", "103110.787500", "103112.795000", "103114.802500", "103116.812500", "103118.820000", "103120.827500", "103122.835000", "103124.842500", "103126.852500", "103128.860000", "103130.867500", "103132.875000", "103134.882500", "103136.892500", "103138.900000", "103140.907500", "103142.915000", "103144.925000", "103146.932500", "103148.940000", "103150.947500", "103152.955000", "103154.965000", "103156.972500", "103158.980000", "103200.987500", "103202.995000", "103205.005000", "103207.012500", "103209.020000", "103211.027500", "103213.035000", "103215.045000", "103217.052500", "103219.060000", "103221.067500", "103223.077500", "103225.085000", "103227.092500", "103229.100000", "103231.107500", "103233.117500", "103235.125000", "103237.132500", "103239.140000", "103241.147500", "103243.157500", "103245.165000", "103247.172500", "103249.180000", "103251.190000", "103253.197500", "103255.205000", "103257.212500", "103259.220000", "103301.230000", "103303.237500", "103305.245000", "103307.252500", "103309.260000", "103311.270000", "103313.277500", "103315.285000", "103317.292500", "103319.302500", "103321.310000", "103323.317500", "103325.325000", "103327.332500", "103329.342500", "103331.350000", "103333.357500", "103335.365000", "103337.372500", "103339.382500", "103341.390000", "103343.397500", "103345.405000", "103347.412500", "103349.422500", "103351.430000", "103353.437500", "103355.445000", "103357.455000", "103359.462500", "103401.470000", "103403.477500", "103405.485000", "103407.495000", "103409.502500", "103411.510000", "103413.517500", "103415.525000", "103417.535000", "103419.542500", "103421.550000", "103423.557500", "103425.567500", "103427.575000", "103429.582500", "103431.590000", "103433.597500", "103435.607500", "103437.615000", "103439.622500", "103441.630000", "103443.637500", "103445.647500", "103447.655000", "103449.662500", "103451.670000", "103453.680000", "103455.687500", "103457.695000", "103459.702500", "103501.710000", "103503.720000", "103505.727500", "103507.735000", "103509.742500"],
      "ContentTime": ["102555.022000", "102555.024000", "102555.027000", "102555.029000", "102555.032000", "102555.032000", "102555.034000", "102555.044000", "102555.044000", "102555.047000", "102555.049000", "102555.052000", "102555.052000", "102555.054000", "102555.057000", "102555.059000", "102555.064000", "102555.064000", "102555.067000", "102555.069000", "102555.072000", "102555.072000", "102555.074000", "102635.017000", "102635.020000", "102635.022000", "102635.025000", "102635.027000", "102635.027000", "102635.030000", "102635.032000", "102635.035000", "102635.037000", "102635.037000", "102635.040000", "102635.042000", "102635.045000", "102635.045000", "102635.047000", "102635.050000", "102635.052000", "102635.052000", "102635.055000", "102715.018000", "102715.020000", "102715.023000", "102715.025000", "102715.028000", "102715.028000", "102715.030000", "102715.033000", "102715.035000", "102715.035000", "102715.038000", "102715.040000", "102715.043000", "102715.043000", "102715.045000", "102715.048000", "102715.050000", "102715.050000", "102715.053000", "102715.055000", "102755.018000", "102755.021000", "102755.023000", "102755.026000", "102755.028000", "102755.028000", "102755.031000", "102755.033000", "102755.036000", "102755.036000", "102755.038000", "102755.041000", "102755.043000", "102755.043000", "102755.046000", "102755.048000", "102755.051000", "102755.051000", "102755.053000", "102755.056000", "102835.019000", "102835.019000", "102835.022000", "102835.024000", "102835.027000", "102835.027000", "102835.029000", "102835.032000", "102835.034000", "102835.034000", "102835.037000", "102835.039000", "102835.042000", "102835.044000", "102835.044000", "102835.047000", "102835.049000", "102835.052000", "102835.052000", "102835.054000", "102915.017000", "102915.020000", "102915.022000", "102915.025000", "102915.025000", "102915.027000", "102915.030000", "102915.032000", "102915.035000", "102915.035000", "102915.037000", "102915.040000", "102915.042000", "102915.042000", "102915.045000", "102915.047000", "102915.050000", "102915.050000", "102915.052000", "102915.055000", "102955.018000", "102955.020000", "102955.023000", "102955.025000", "102955.028000", "102955.028000", "102955.030000", "102955.033000", "102955.035000", "102955.035000", "102955.038000", "102955.040000", "102955.043000", "102955.043000", "102955.045000", "102955.048000", "102955.050000", "102955.050000", "102955.053000", "102955.055000", "103035.018000", "103035.021000", "103035.023000", "103035.026000", "103035.028000", "103035.028000", "103035.031000", "103035.033000", "103035.036000", "103035.036000", "103035.038000", "103035.041000", "103035.043000", "103035.043000", "103035.046000", "103035.048000", "103035.051000", "103035.053000", "103035.053000", "103035.056000", "103115.016000", "103115.019000", "103115.021000", "103115.024000", "103115.026000", "103115.026000", "103115.029000", "103115.031000", "103115.034000", "103115.034000", "103115.036000", "103115.039000", "103115.041000", "103115.041000", "103115.044000", "103115.046000", "103115.049000", "103115.051000", "103115.051000", "103115.054000", "103155.017000", "103155.020000", "103155.022000", "103155.025000", "103155.027000", "103155.027000", "103155.030000", "103155.032000", "103155.035000", "103155.035000", "103155.037000", "103155.040000", "103155.042000", "103155.042000", "103155.045000", "103155.047000", "103155.050000", "103155.052000", "103155.052000", "103155.055000", "103235.018000", "103235.020000", "103235.023000", "103235.025000", "103235.028000", "103235.028000", "103235.030000", "103235.033000", "103235.035000", "103235.035000", "103235.038000", "103235.040000", "103235.043000", "103235.045000", "103235.045000", "103235.048000", "103235.050000", "103235.053000", "103235.053000", "103235.055000", "103315.018000", "103315.021000", "103315.033000", "103315.036000", "103315.038000", "103315.041000", "103315.041000", "103315.043000", "103315.046000", "103315.048000", "103315.051000", "103315.051000", "103315.053000", "103315.056000", "103315.058000", "103315.058000", "103315.061000", "103315.063000", "103315.066000", "103315.066000", "103355.016000", "103355.019000", "103355.021000", "103355.024000", "103355.026000", "103355.026000", "103355.029000", "103355.031000", "103355.034000", "103355.034000", "103355.036000", "103355.039000", "103355.041000", "103355.044000", "103355.044000", "103355.046000", "103355.049000", "103355.051000", "103355.051000", "103355.054000", "103435.017000", "103435.020000", "103435.022000", "103435.025000", "103435.027000", "103435.027000", "103435.030000", "103435.032000", "103435.035000", "103435.035000", "103435.037000", "103435.040000", "103435.042000", "103435.045000", "103435.045000", "103435.047000", "103435.050000", "103435.052000", "103435.052000", "103435.055000", "103508.570000", "103508.570000", "103508.573000", "103508.575000", "103508.578000", "103508.578000", "103508.580000", "103508.583000", "103508.585000", "103508.585000", "103508.588000", "103508.590000", "103508.593000", "103508.593000", "103508.595000", "103508.598000", "103508.600000"],
      "InstanceCreationTime": ["102555.022000", "102555.024000", "102555.027000", "102555.029000", "102555.032000", "102555.032000", "102555.034000", "102555.044000", "102555.044000", "102555.047000", "102555.049000", "102555.052000", "102555.052000", "102555.054000", "102555.057000", "102555.059000", "102555.064000", "102555.064000", "102555.067000", "102555.069000", "102555.072000", "102555.072000", "102555.074000", "102635.017000", "102635.020000", "102635.022000", "102635.025000", "102635.027000", "102635.027000", "102635.030000", "102635.032000", "102635.035000", "102635.037000", "102635.037000", "102635.040000", "102635.042000", "102635.045000", "102635.045000", "102635.047000", "102635.050000", "102635.052000", "102635.052000", "102635.055000", "102715.018000", "102715.020000", "102715.023000", "102715.025000", "102715.028000", "102715.028000", "102715.030000", "102715.033000", "102715.035000", "102715.035000", "102715.038000", "102715.040000", "102715.043000", "102715.043000", "102715.045000", "102715.048000", "102715.050000", "102715.050000", "102715.053000", "102715.055000", "102755.018000", "102755.021000", "102755.023000", "102755.026000", "102755.028000", "102755.028000", "102755.031000", "102755.033000", "102755.036000", "102755.036000", "102755.038000", "102755.041000", "102755.043000", "102755.043000", "102755.046000", "102755.048000", "102755.051000", "102755.051000", "102755.053000", "102755.056000", "102835.019000", "102835.019000", "102835.022000", "102835.024000", "102835.027000", "102835.027000", "102835.029000", "102835.032000", "102835.034000", "102835.034000", "102835.037000", "102835.039000", "102835.042000", "102835.044000", "102835.044000", "102835.047000", "102835.049000", "102835.052000", "102835.052000", "102835.054000", "102915.017000", "102915.020000", "102915.022000", "102915.025000", "102915.025000", "102915.027000", "102915.030000", "102915.032000", "102915.035000", "102915.035000", "102915.037000", "102915.040000", "102915.042000", "102915.042000", "102915.045000", "102915.047000", "102915.050000", "102915.050000", "102915.052000", "102915.055000", "102955.018000", "102955.020000", "102955.023000", "102955.025000", "102955.028000", "102955.028000", "102955.030000", "102955.033000", "102955.035000", "102955.035000", "102955.038000", "102955.040000", "102955.043000", "102955.043000", "102955.045000", "102955.048000", "102955.050000", "102955.050000", "102955.053000", "102955.055000", "103035.018000", "103035.021000", "103035.023000", "103035.026000", "103035.028000", "103035.028000", "103035.031000", "103035.033000", "103035.036000", "103035.036000", "103035.038000", "103035.041000", "103035.043000", "103035.043000", "103035.046000", "103035.048000", "103035.051000", "103035.053000", "103035.053000", "103035.056000", "103115.016000", "103115.019000", "103115.021000", "103115.024000", "103115.026000", "103115.026000", "103115.029000", "103115.031000", "103115.034000", "103115.034000", "103115.036000", "103115.039000", "103115.041000", "103115.041000", "103115.044000", "103115.046000", "103115.049000", "103115.051000", "103115.051000", "103115.054000", "103155.017000", "103155.020000", "103155.022000", "103155.025000", "103155.027000", "103155.027000", "103155.030000", "103155.032000", "103155.035000", "103155.035000", "103155.037000", "103155.040000", "103155.042000", "103155.042000", "103155.045000", "103155.047000", "103155.050000", "103155.052000", "103155.052000", "103155.055000", "103235.018000", "103235.020000", "103235.023000", "103235.025000", "103235.028000", "103235.028000", "103235.030000", "103235.033000", "103235.035000", "103235.035000", "103235.038000", "103235.040000", "103235.043000", "103235.045000", "103235.045000", "103235.048000", "103235.050000", "103235.053000", "103235.053000", "103235.055000", "103315.018000", "103315.021000", "103315.033000", "103315.036000", "103315.038000", "103315.041000", "103315.041000", "103315.043000", "103315.046000", "103315.048000", "103315.051000", "103315.051000", "103315.053000", "103315.056000", "103315.058000", "103315.058000", "103315.061000", "103315.063000", "103315.066000", "103315.066000", "103355.016000", "103355.019000", "103355.021000", "103355.024000", "103355.026000", "103355.026000", "103355.029000", "103355.031000", "103355.034000", "103355.034000", "103355.036000", "103355.039000", "103355.041000", "103355.044000", "103355.044000", "103355.046000", "103355.049000", "103355.051000", "103355.051000", "103355.054000", "103435.017000", "103435.020000", "103435.022000", "103435.025000", "103435.027000", "103435.027000", "103435.030000", "103435.032000", "103435.035000", "103435.035000", "103435.037000", "103435.040000", "103435.042000", "103435.045000", "103435.045000", "103435.047000", "103435.050000", "103435.052000", "103435.052000", "103435.055000", "103508.570000", "103508.570000", "103508.573000", "103508.575000", "103508.578000", "103508.578000", "103508.580000", "103508.583000", "103508.585000", "103508.585000", "103508.588000", "103508.590000", "103508.593000", "103508.593000", "103508.595000", "103508.598000", "103508.600000"],
      "InstanceNumber": [1, 2, 3, 4, 5, 6, 7, 8, 9, 10, 11, 12, 13, 14, 15, 16, 17, 18, 19, 20, 21, 22, 23, 24, 25, 26, 27, 28, 29, 30, 31, 32, 33, 34, 35, 36, 37, 38, 39, 40, 41, 42, 43, 44, 45, 46, 47, 48, 49, 50, 51, 52, 53, 54, 55, 56, 57, 58, 59, 60, 61, 62, 63, 64, 65, 66, 67, 68, 69, 70, 71, 72, 73, 74, 75, 76, 77, 78, 79, 80, 81, 82, 83, 84, 85, 86, 87, 88, 89, 90, 91, 92, 93, 94, 95, 96, 97, 98, 99, 100, 101, 102, 103, 104, 105, 106, 107, 108, 109, 110, 111, 112, 113, 114, 115, 116, 117, 118, 119, 120, 121, 122, 123, 124, 125, 126, 127, 128, 129, 130, 131, 132, 133, 134, 135, 136, 137, 138, 139, 140, 141, 142, 143, 144, 145, 146, 147, 148, 149, 150, 151, 152, 153, 154, 155, 156, 157, 158, 159, 160, 161, 162, 163, 164, 165, 166, 167, 168, 169, 170, 171, 172, 173, 174, 175, 176, 177, 178, 179, 180, 181, 182, 183, 184, 185, 186, 187, 188, 189, 190, 191, 192, 193, 194, 195, 196, 197, 198, 199, 200, 201, 202, 203, 204, 205, 206, 207, 208, 209, 210, 211, 212, 213, 214, 215, 216, 217, 218, 219, 220, 221, 222, 223, 224, 225, 226, 227, 228, 229, 230, 231, 232, 233, 234, 235, 236, 237, 238, 239, 240, 241, 242, 243, 244, 245, 246, 247, 248, 249, 250, 251, 252, 253, 254, 255, 256, 257, 258, 259, 260, 261, 262, 263, 264, 265, 266, 267, 268, 269, 270, 271, 272, 273, 274, 275, 276, 277, 278, 279, 280, 281, 282, 283, 284, 285, 286, 287, 288, 289, 290, 291, 292, 293, 294, 295, 296, 297, 298, 299, 300],
      "LargestImagePixelValue": [1806, 1588, 1741, 1698, 1701, 1679, 1670, 1523, 1759, 1822, 1768, 1654, 1666, 2027, 1590, 1551, 1784, 1800, 1797, 1805, 1714, 1745, 1511, 1554, 1751, 1876, 1834, 1849, 1670, 1512, 1691, 1745, 1809, 1761, 2058, 1577, 1552, 1749, 1866, 1814, 1773, 1978, 1571, 1602, 1763, 1712, 1764, 1786, 1871, 1537, 1764, 1906, 1863, 1804, 2090, 1734, 1472, 1639, 1887, 1855, 1848, 1985, 1563, 1657, 1757, 1818, 1853, 1553, 1694, 1908, 1999, 2027, 1504, 1854, 2007, 1943, 1747, 1943, 1547, 1694, 1898, 1960, 1881, 1857, 1728, 2047, 1709, 1615, 1873, 1956, 1896, 1762, 2025, 1679, 1541, 1639, 1680, 1710, 1756, 1939, 2137, 1638, 1630, 1737, 1740, 1744, 1806, 1739, 1976, 1597, 1502, 1624, 1783, 1750, 1716, 1719, 2011, 1492, 1668, 1843, 1673, 1676, 1831, 1765, 1467, 1680, 1820, 1907, 1826, 1745, 1893, 1477, 1697, 1954, 1892, 1749, 1652, 1955, 1552, 1837, 1698, 1738, 1650, 1560, 1812, 1886, 1858, 1913, 1538, 1797, 1965, 1601, 1703, 1755, 2097, 1622, 1553, 1712, 1740, 1740, 1819, 1856, 1719, 1715, 1798, 1703, 1743, 1746, 1667, 1664, 1779, 1810, 1908, 1832, 1853, 1752, 1655, 1727, 1785, 1799, 1789, 1903, 1704, 1701, 1735, 1926, 1897, 1807, 1822, 1812, 1727, 1788, 1782, 1825, 1790, 1843, 1837, 1862, 1655, 1715, 1861, 1968, 1910, 1832, 1955, 1558, 1808, 1906, 1962, 1862, 1793, 1868, 1665, 1681, 1829, 1867, 1841, 1863, 1855, 1761, 1677, 1592, 1944, 2002, 2035, 1701, 1818, 1969, 1929, 1883, 1952, 1589, 1793, 2004, 1903, 1935, 1953, 1990, 1774, 1613, 1769, 2002, 1982, 1938, 2057, 1719, 1739, 1973, 1995, 1978, 1982, 1927, 1709, 1738, 1929, 1893, 2011, 1835, 1847, 1711, 1864, 1856, 1963, 1974, 1741, 1733, 1633, 1771, 2008, 1933, 2019, 1613, 1706, 1976, 2031, 1902, 1859, 1661, 1717, 1977, 2050, 1821, 1765, 1820, 1824, 1991, 1901, 1826, 1658, 1642, 1979, 2078, 1980, 1811, 1582, 1656, 1856, 2248, 1927, 1806],
      "WindowCenter": [622.0, 615.0, 613.0, 614.0, 613.0, 612.0, 613.0, 612.0, 614.0, 614.0, 613.0, 613.0, 613.0, 614.0, 612.0, 613.0, 614.0, 614.0, 615.0, 615.0, 614.0, 615.0, 612.0, 613.0, 615.0, 616.0, 616.0, 615.0, 614.0, 613.0, 613.0, 613.0, 614.0, 615.0, 616.0, 613.0, 613.0, 614.0, 615.0, 615.0, 615.0, 617.0, 614.0, 613.0, 614.0, 614.0, 614.0, 616.0, 616.0, 614.0, 616.0, 617.0, 616.0, 616.0, 616.0, 614.0, 612.0, 614.0, 616.0, 617.0, 617.0, 618.0, 616.0, 616.0, 617.0, 617.0, 618.0, 616.0, 617.0, 618.0, 618.0, 618.0, 615.0, 617.0, 618.0, 617.0, 616.0, 616.0, 614.0, 616.0, 618.0, 618.0, 617.0, 617.0, 617.0, 618.0, 617.0, 616.0, 618.0, 619.0, 619.0, 617.0, 623.0, 620.0, 618.0, 620.0, 621.0, 620.0, 620.0, 620.0, 619.0, 617.0, 617.0, 618.0, 618.0, 617.0, 618.0, 617.0, 618.0, 616.0, 616.0, 617.0, 618.0, 619.0, 619.0, 619.0, 620.0, 617.0, 618.0, 619.0, 620.0, 619.0, 621.0, 620.0, 617.0, 620.0, 620.0, 620.0, 620.0, 618.0, 619.0, 617.0, 619.0, 620.0, 620.0, 618.0, 618.0, 619.0, 618.0, 619.0, 617.0, 619.0, 616.0, 617.0, 619.0, 619.0, 620.0, 619.0, 617.0, 618.0, 619.0, 621.0, 618.0, 618.0, 620.0, 618.0, 619.0, 619.0, 620.0, 619.0, 619.0, 619.0, 618.0, 621.0, 619.0, 618.0, 619.0, 620.0, 619.0, 620.0, 620.0, 620.0, 620.0, 620.0, 621.0, 621.0, 620.0, 620.0, 620.0, 620.0, 621.0, 622.0, 621.0, 621.0, 621.0, 622.0, 621.0, 620.0, 619.0, 620.0, 620.0, 620.0, 621.0, 620.0, 620.0, 620.0, 621.0, 623.0, 621.0, 621.0, 621.0, 623.0, 623.0, 622.0, 621.0, 620.0, 620.0, 621.0, 622.0, 621.0, 621.0, 622.0, 621.0, 621.0, 622.0, 622.0, 621.0, 621.0, 621.0, 622.0, 621.0, 622.0, 623.0, 624.0, 624.0, 621.0, 623.0, 625.0, 623.0, 622.0, 623.0, 621.0, 622.0, 624.0, 622.0, 622.0, 622.0, 623.0, 622.0, 621.0, 622.0, 624.0, 624.0, 624.0, 624.0, 622.0, 622.0, 623.0, 623.0, 624.0, 624.0, 623.0, 621.0, 622.0, 624.0, 623.0, 624.0, 623.0, 622.0, 622.0, 623.0, 623.0, 624.0, 624.0, 623.0, 622.0, 623.0, 624.0, 625.0, 624.0, 624.0, 622.0, 622.0, 624.0, 624.0, 623.0, 622.0, 621.0, 623.0, 625.0, 625.0, 624.0, 623.0, 624.0, 624.0, 624.0, 624.0, 623.0, 622.0, 623.0, 625.0, 625.0, 625.0, 623.0, 621.0, 623.0, 625.0, 627.0, 625.0, 625.0],
      "WindowWidth": [1315.0, 1299.0, 1294.0, 1295.0, 1293.0, 1292.0, 1294.0, 1293.0, 1295.0, 1295.0, 1294.0, 1293.0, 1293.0, 1295.0, 1292.0, 1293.0, 1296.0, 1296.0, 1297.0, 1298.0, 1296.0, 1298.0, 1292.0, 1293.0, 1298.0, 1301.0, 1300.0, 1299.0, 1296.0, 1294.0, 1294.0, 1295.0, 1297.0, 1298.0, 1299.0, 1294.0, 1293.0, 1295.0, 1299.0, 1298.0, 1299.0, 1302.0, 1297.0, 1295.0, 1296.0, 1296.0, 1297.0, 1300.0, 1300.0, 1297.0, 1300.0, 1302.0, 1301.0, 1300.0, 1299.0, 1296.0, 1292.0, 1296.0, 1300.0, 1302.0, 1304.0, 1305.0, 1302.0, 1301.0, 1301.0, 1304.0, 1305.0, 1301.0, 1303.0, 1305.0, 1305.0, 1304.0, 1298.0, 1302.0, 1304.0, 1304.0, 1300.0, 1299.0, 1296.0, 1300.0, 1304.0, 1305.0, 1303.0, 1302.0, 1302.0, 1304.0, 1302.0, 1301.0, 1304.0, 1307.0, 1307.0, 1303.0, 1316.0, 1309.0, 1306.0, 1311.0, 1314.0, 1311.0, 1310.0, 1309.0, 1307.0, 1303.0, 1302.0, 1304.0, 1304.0, 1304.0, 1305.0, 1304.0, 1305.0, 1301.0, 1301.0, 1302.0, 1306.0, 1308.0, 1308.0, 1307.0, 1308.0, 1304.0, 1306.0, 1308.0, 1310.0, 1308.0, 1312.0, 1309.0, 1304.0, 1309.0, 1310.0, 1311.0, 1309.0, 1306.0, 1307.0, 1304.0, 1307.0, 1309.0, 1309.0, 1306.0, 1305.0, 1308.0, 1305.0, 1308.0, 1303.0, 1308.0, 1300.0, 1303.0, 1307.0, 1307.0, 1308.0, 1307.0, 1303.0, 1305.0, 1308.0, 1311.0, 1305.0, 1305.0, 1309.0, 1306.0, 1308.0, 1308.0, 1309.0, 1308.0, 1307.0, 1308.0, 1306.0, 1311.0, 1308.0, 1306.0, 1308.0, 1310.0, 1308.0, 1309.0, 1309.0, 1309.0, 1310.0, 1309.0, 1313.0, 1311.0, 1311.0, 1309.0, 1309.0, 1310.0, 1312.0, 1314.0, 1312.0, 1311.0, 1312.0, 1315.0, 1312.0, 1310.0, 1308.0, 1309.0, 1309.0, 1309.0, 1311.0, 1309.0, 1309.0, 1309.0, 1311.0, 1316.0, 1312.0, 1311.0, 1312.0, 1316.0, 1315.0, 1314.0, 1312.0, 1310.0, 1310.0, 1312.0, 1314.0, 1313.0, 1311.0, 1315.0, 1312.0, 1313.0, 1314.0, 1313.0, 1313.0, 1311.0, 1313.0, 1314.0, 1313.0, 1315.0, 1317.0, 1318.0, 1317.0, 1313.0, 1316.0, 1321.0, 1316.0, 1315.0, 1316.0, 1312.0, 1315.0, 1318.0, 1314.0, 1314.0, 1314.0, 1317.0, 1315.0, 1311.0, 1314.0, 1318.0, 1318.0, 1318.0, 1317.0, 1315.0, 1315.0, 1316.0, 1316.0, 1318.0, 1319.0, 1317.0, 1313.0, 1315.0, 1318.0, 1317.0, 1318.0, 1316.0, 1315.0, 1315.0, 1317.0, 1316.0, 1318.0, 1318.0, 1316.0, 1315.0, 1317.0, 1319.0, 1321.0, 1319.0, 1318.0, 1314.0, 1316.0, 1319.0, 1319.0, 1316.0, 1313.0, 1312.0, 1316.0, 1321.0, 1321.0, 1318.0, 1317.0, 1318.0, 1319.0, 1319.0, 1318.0, 1316.0, 1315.0, 1316.0, 1321.0, 1322.0, 1320.0, 1316.0, 1312.0, 1316.0, 1320.0, 1326.0, 1322.0, 1322.0]
    },
    "slices": {}
  }
}