{
  "AcquisitionMatrixPE": 74,
  "AcquisitionNumber": 1,
  "AcquisitionTime": "14:18:12.367500",
  "BandwidthPerPixelPhaseEncode": 27.579,
  "BaseResolution": 74,
  "BodyPartExamined": "HEAD",
  "CoilString": "t:HEA;HEP",
  "ConversionSoftware": "dcm2niix",
  "ConversionSoftwareVersion": "v1.0.20190410  GCC6.3.0",
  "DerivedVendorReportedEchoSpacing": 0.000489993,
  "DeviceSerialNumber": "35256",
  "DwellTime": 2.4e-06,
  "EchoTime": 0.03,
  "EffectiveEchoSpacing": 0.000489993,
  "FlipAngle": 70,
  "ImageOrientationPatientDICOM": [1, 0, 0, 0, 1, 0],
  "ImageType": [
    "ORIGINAL",
    "PRIMARY",
    "M",
    "ND",
    "NORM",
    "MOSAIC"
],
  "ImagingFrequency": 123.223,
  "InPlanePhaseEncodingDirectionDICOM": "COL",
  "InstitutionAddress": "East_Lee_St._2907_Greensboro_NC_US_27401",
  "InstitutionName": "JSNN",
  "InstitutionalDepartmentName": "Department",
  "MRAcquisitionType": "2D",
  "MagneticFieldStrength": 3,
  "Manufacturer": "Siemens",
  "ManufacturersModelName": "TrioTim",
  "Modality": "MR",
  "PartialFourier": 1,
  "PatientPosition": "HFS",
  "PercentPhaseFOV": 100,
  "PhaseEncodingDirection": "j-",
  "PhaseEncodingSteps": 74,
  "PhaseResolution": 1,
  "PixelBandwidth": 2815,
  "ProcedureStepDescription": "head_Cassidy",
  "ProtocolName": "RestingState",
  "PulseSequenceDetails": "%SiemensSeq%_ep2d_bold",
  "ReceiveCoilName": "HeadMatrix",
  "ReconMatrixPE": 74,
  "RepetitionTime": 2,
  "SAR": 0.0999596,
  "ScanOptions": "FS",
  "ScanningSequence": "EP",
  "SequenceName": "_epfid2d1_74",
  "SequenceVariant": "SK",
  "SeriesDescription": "RestingState",
  "SeriesNumber": 3,
  "ShimSetting": [1506, 10802, -8719, 681, 477, 19, -690, -378],
  "SliceThickness": 4,
  "SliceTiming": [1.945, 1.8825, 1.82, 1.7575, 1.6925, 1.63, 1.5675, 1.505, 1.4425, 1.38, 1.3175, 1.255, 1.1925, 1.13, 1.065, 1.0025, 0.94, 0.8775, 0.815, 0.7525, 0.69, 0.6275, 0.565, 0.5025, 0.44, 0.375, 0.3125, 0.25, 0.1875, 0.125, 0.0625, 0],
  "SoftwareVersions": "syngo_MR_B19",
  "SpacingBetweenSlices": 4,
  "StationName": "JSNNMRI",
  "TaskName": "rest",
  "TotalReadoutTime": 0.0357695,
  "TxRefAmp": 281.87,
  "dcmmeta_affine": [
    [-2.972972869873047, 0.0, 0.0, 105.18071746826172],
    [0.0, 2.972972869873047, 0.0, -92.02461242675781],
    [0.0, 0.0, 3.999999761581421, -50.8433723449707],
    [0.0, 0.0, 0.0, 1.0]
],
  "dcmmeta_reorient_transform": [
    [0.0, -1.0, 0.0, 73.0],
    [1.0, 0.0, 0.0, 0.0],
    [0.0, 0.0, 1.0, 0.0],
    [0.0, 0.0, 0.0, 1.0]
],
  "dcmmeta_shape": [74, 74, 32, 300],
  "dcmmeta_slice_dim": 2,
  "dcmmeta_version": 0.6,
  "global": {
    "const": {
      "AcquisitionMatrix": [74, 0, 0, 74],
      "AngioFlag": "N",
      "BitsAllocated": 16,
      "BitsStored": 12,
      "BodyPartExamined": "HEAD",
      "Columns": 444,
      "EchoNumbers": 1,
      "EchoTime": 30.0,
      "EchoTrainLength": 1,
      "FlipAngle": 70.0,
      "HighBit": 11,
      "ImageOrientationPatient": [1.0, 0.0, 0.0, 0.0, 1.0, 0.0],
      "ImagePositionPatient": [-655.18069982529, -675.00238704681, -50.843372344971],
      "ImageType": [
        "ORIGINAL",
        "PRIMARY",
        "M",
        "ND",
        "NORM",
        "MOSAIC"
],
      "ImagedNucleus": "1H",
      "ImagingFrequency": 123.223168,
      "InPlanePhaseEncodingDirection": "COL",
      "MRAcquisitionType": "2D",
      "MagneticFieldStrength": 3.0,
      "Manufacturer": "SIEMENS",
      "ManufacturerModelName": "TrioTim",
      "Modality": "MR",
      "NumberOfAverages": 1.0,
      "NumberOfPhaseEncodingSteps": 74,
      "PercentPhaseFieldOfView": 100.0,
      "PercentSampling": 100.0,
      "PerformedProcedureStepStartTime": "133143.592000",
      "PhotometricInterpretation": "MONOCHROME2",
      "PixelBandwidth": 2815.0,
      "PixelRepresentation": 0,
      "PixelSpacing": [2.972972869873, 2.972972869873],
      "ProtocolName": "RestingState",
      "RepetitionTime": 2000.0,
      "Rows": 444,
      "SAR": 0.099959604942,
      "SamplesPerPixel": 1,
      "ScanOptions": "FS",
      "ScanningSequence": "EP",
      "SequenceName": "*epfid2d1_74",
      "SequenceVariant": "SK",
      "SeriesDescription": "RestingState",
      "SeriesNumber": 3,
      "SeriesTime": "141852.403000",
      "SliceLocation": -50.843372344971,
      "SliceThickness": 4.0,
      "SmallestImagePixelValue": 0,
      "SoftwareVersions": "syngo MR B19",
      "SpacingBetweenSlices": 3.9999998769452,
      "SpecificCharacterSet": "ISO_IR 100",
      "StudyID": "1",
      "StudyTime": "133143.534000",
      "TransmitCoilName": "Body",
      "VariableFlipAngleFlag": "N",
      "WindowCenterWidthExplanation": "Algo1",
      "dBdt": 0.0},
    "slices": {}
  },
  "time": {
    "samples": {
      "AcquisitionNumber": [1, 2, 3, 4, 5, 6, 7, 8, 9, 10, 11, 12, 13, 14, 15, 16, 17, 18, 19, 20, 21, 22, 23, 24, 25, 26, 27, 28, 29, 30, 31, 32, 33, 34, 35, 36, 37, 38, 39, 40, 41, 42, 43, 44, 45, 46, 47, 48, 49, 50, 51, 52, 53, 54, 55, 56, 57, 58, 59, 60, 61, 62, 63, 64, 65, 66, 67, 68, 69, 70, 71, 72, 73, 74, 75, 76, 77, 78, 79, 80, 81, 82, 83, 84, 85, 86, 87, 88, 89, 90, 91, 92, 93, 94, 95, 96, 97, 98, 99, 100, 101, 102, 103, 104, 105, 106, 107, 108, 109, 110, 111, 112, 113, 114, 115, 116, 117, 118, 119, 120, 121, 122, 123, 124, 125, 126, 127, 128, 129, 130, 131, 132, 133, 134, 135, 136, 137, 138, 139, 140, 141, 142, 143, 144, 145, 146, 147, 148, 149, 150, 151, 152, 153, 154, 155, 156, 157, 158, 159, 160, 161, 162, 163, 164, 165, 166, 167, 168, 169, 170, 171, 172, 173, 174, 175, 176, 177, 178, 179, 180, 181, 182, 183, 184, 185, 186, 187, 188, 189, 190, 191, 192, 193, 194, 195, 196, 197, 198, 199, 200, 201, 202, 203, 204, 205, 206, 207, 208, 209, 210, 211, 212, 213, 214, 215, 216, 217, 218, 219, 220, 221, 222, 223, 224, 225, 226, 227, 228, 229, 230, 231, 232, 233, 234, 235, 236, 237, 238, 239, 240, 241, 242, 243, 244, 245, 246, 247, 248, 249, 250, 251, 252, 253, 254, 255, 256, 257, 258, 259, 260, 261, 262, 263, 264, 265, 266, 267, 268, 269, 270, 271, 272, 273, 274, 275, 276, 277, 278, 279, 280, 281, 282, 283, 284, 285, 286, 287, 288, 289, 290, 291, 292, 293, 294, 295, 296, 297, 298, 299, 300],
      "AcquisitionTime": ["141812.367500", "141814.375000", "141816.382500", "141818.390000", "141820.400000", "141822.407500", "141824.415000", "141826.422500", "141828.430000", "141830.440000", "141832.447500", "141834.455000", "141836.462500", "141838.472500", "141840.480000", "141842.487500", "141844.495000", "141846.502500", "141848.512500", "141850.520000", "141852.527500", "141854.535000", "141856.542500", "141858.552500", "141900.560000", "141902.567500", "141904.575000", "141906.585000", "141908.592500", "141910.600000", "141912.607500", "141914.615000", "141916.625000", "141918.632500", "141920.640000", "141922.647500", "141924.655000", "141926.665000", "141928.672500", "141930.680000", "141932.687500", "141934.697500", "141936.705000", "141938.712500", "141940.720000", "141942.727500", "141944.737500", "141946.745000", "141948.752500", "141950.760000", "141952.767500", "141954.777500", "141956.785000", "141958.792500", "142000.800000", "142002.807500", "142004.817500", "142006.825000", "142008.832500", "142010.840000", "142012.850000", "142014.857500", "142016.865000", "142018.872500", "142020.880000", "142022.890000", "142024.897500", "142026.905000", "142028.912500", "142030.920000", "142032.930000", "142034.937500", "142036.945000", "142038.952500", "142040.962500", "142042.970000", "142044.977500", "142046.985000", "142048.992500", "142051.002500", "142053.010000", "142055.017500", "142057.025000", "142059.032500", "142101.042500", "142103.050000", "142105.057500", "142107.065000", "142109.075000", "142111.082500", "142113.090000", "142115.097500", "142117.105000", "142119.115000", "142121.122500", "142123.130000", "142125.137500", "142127.145000", "142129.155000", "142131.162500", "142133.170000", "142135.177500", "142137.185000", "142139.195000", "142141.202500", "142143.210000", "142145.217500", "142147.227500", "142149.235000", "142151.242500", "142153.250000", "142155.257500", "142157.267500", "142159.275000", "142201.282500", "142203.290000", "142205.297500", "142207.307500", "142209.315000", "142211.322500", "142213.330000", "142215.340000", "142217.347500", "142219.355000", "142221.362500", "142223.370000", "142225.380000", "142227.387500", "142229.395000", "142231.402500", "142233.410000", "142235.420000", "142237.427500", "142239.435000", "142241.442500", "142243.452500", "142245.460000", "142247.467500", "142249.475000", "142251.482500", "142253.492500", "142255.500000", "142257.507500", "142259.515000", "142301.522500", "142303.532500", "142305.540000", "142307.547500", "142309.555000", "142311.562500", "142313.572500", "142315.580000", "142317.587500", "142319.595000", "142321.605000", "142323.612500", "142325.620000", "142327.627500", "142329.635000", "142331.645000", "142333.652500", "142335.660000", "142337.667500", "142339.675000", "142341.685000", "142343.692500", "142345.700000", "142347.707500", "142349.717500", "142351.725000", "142353.732500", "142355.740000", "142357.747500", "142359.757500", "142401.765000", "142403.772500", "142405.780000", "142407.787500", "142409.797500", "142411.805000", "142413.812500", "142415.820000", "142417.830000", "142419.837500", "142421.845000", "142423.852500", "142425.860000", "142427.870000", "142429.877500", "142431.885000", "142433.892500", "142435.900000", "142437.910000", "142439.917500", "142441.925000", "142443.932500", "142445.942500", "142447.950000", "142449.957500", "142451.965000", "142453.972500", "142455.982500", "142457.990000", "142459.997500", "142502.005000", "142504.012500", "142506.022500", "142508.030000", "142510.037500", "142512.045000", "142514.052500", "142516.062500", "142518.070000", "142520.077500", "142522.085000", "142524.095000", "142526.102500", "142528.110000", "142530.117500", "142532.125000", "142534.135000", "142536.142500", "142538.150000", "142540.157500", "142542.165000", "142544.175000", "142546.182500", "142548.190000", "142550.197500", "142552.207500", "142554.215000", "142556.222500", "142558.230000", "142600.237500", "142602.247500", "142604.255000", "142606.262500", "142608.270000", "142610.277500", "142612.287500", "142614.295000", "142616.302500", "142618.310000", "142620.320000", "142622.327500", "142624.335000", "142626.342500", "142628.350000", "142630.360000", "142632.367500", "142634.375000", "142636.382500", "142638.390000", "142640.400000", "142642.407500", "142644.415000", "142646.422500", "142648.430000", "142650.440000", "142652.447500", "142654.455000", "142656.462500", "142658.472500", "142700.480000", "142702.487500", "142704.495000", "142706.502500", "142708.512500", "142710.520000", "142712.527500", "142714.535000", "142716.542500", "142718.552500", "142720.560000", "142722.567500", "142724.575000", "142726.585000", "142728.592500", "142730.600000", "142732.607500", "142734.615000", "142736.625000", "142738.632500", "142740.640000", "142742.647500", "142744.655000", "142746.665000", "142748.672500", "142750.680000", "142752.687500", "142754.697500", "142756.705000", "142758.712500", "142800.720000", "142802.727500", "142804.737500", "142806.745000", "142808.752500", "142810.760000", "142812.767500"],
      "ContentTime": ["141852.405000", "141852.408000", "141852.410000", "141852.413000", "141852.413000", "141852.415000", "141852.418000", "141852.420000", "141852.423000", "141852.423000", "141852.425000", "141852.428000", "141852.430000", "141852.430000", "141852.433000", "141852.440000", "141852.443000", "141852.443000", "141852.445000", "141852.448000", "141932.399000", "141932.401000", "141932.404000", "141932.406000", "141932.409000", "141932.409000", "141932.411000", "141932.414000", "141932.416000", "141932.416000", "141932.419000", "141932.421000", "141932.424000", "141932.426000", "141932.426000", "141932.429000", "141932.431000", "141932.434000", "141932.434000", "141932.436000", "142012.399000", "142012.402000", "142012.404000", "142012.407000", "142012.409000", "142012.409000", "142012.412000", "142012.417000", "142012.419000", "142012.419000", "142012.422000", "142012.424000", "142012.427000", "142012.427000", "142012.429000", "142012.432000", "142012.434000", "142012.434000", "142012.437000", "142012.439000", "142052.400000", "142052.402000", "142052.405000", "142052.407000", "142052.410000", "142052.410000", "142052.412000", "142052.415000", "142052.417000", "142052.417000", "142052.420000", "142052.422000", "142052.425000", "142052.425000", "142052.427000", "142052.430000", "142052.432000", "142052.435000", "142052.435000", "142052.437000", "142132.400000", "142132.403000", "142132.405000", "142132.408000", "142132.410000", "142132.410000", "142132.415000", "142132.418000", "142132.418000", "142132.420000", "142132.423000", "142132.425000", "142132.428000", "142132.428000", "142132.430000", "142132.433000", "142132.435000", "142132.435000", "142132.438000", "142132.440000", "142212.399000", "142212.401000", "142212.404000", "142212.406000", "142212.409000", "142212.409000", "142212.411000", "142212.414000", "142212.416000", "142212.416000", "142212.419000", "142212.421000", "142212.424000", "142212.426000", "142212.426000", "142212.429000", "142212.431000", "142212.434000", "142212.434000", "142212.436000", "142252.399000", "142252.402000", "142252.404000", "142252.412000", "142252.414000", "142252.417000", "142252.417000", "142252.419000", "142252.422000", "142252.424000", "142252.427000", "142252.427000", "142252.429000", "142252.432000", "142252.434000", "142252.434000", "142252.437000", "142252.439000", "142252.442000", "142252.442000", "142332.400000", "142332.402000", "142332.405000", "142332.407000", "142332.410000", "142332.410000", "142332.412000", "142332.415000", "142332.417000", "142332.417000", "142332.420000", "142332.422000", "142332.425000", "142332.425000", "142332.427000", "142332.430000", "142332.432000", "142332.435000", "142332.435000", "142332.437000", "142412.400000", "142412.403000", "142412.405000", "142412.408000", "142412.410000", "142412.410000", "142412.413000", "142412.415000", "142412.418000", "142412.418000", "142412.420000", "142412.423000", "142412.425000", "142412.425000", "142412.428000", "142412.430000", "142412.433000", "142412.435000", "142412.435000", "142412.438000", "142452.398000", "142452.401000", "142452.403000", "142452.406000", "142452.408000", "142452.408000", "142452.411000", "142452.413000", "142452.416000", "142452.416000", "142452.418000", "142452.421000", "142452.423000", "142452.423000", "142452.426000", "142452.428000", "142452.431000", "142452.433000", "142452.433000", "142452.436000", "142532.399000", "142532.402000", "142532.404000", "142532.407000", "142532.409000", "142532.409000", "142532.412000", "142532.414000", "142532.417000", "142532.417000", "142532.419000", "142532.422000", "142532.424000", "142532.427000", "142532.427000", "142532.429000", "142532.432000", "142532.434000", "142532.442000", "142532.444000", "142612.400000", "142612.402000", "142612.405000", "142612.407000", "142612.410000", "142612.410000", "142612.412000", "142612.415000", "142612.417000", "142612.417000", "142612.420000", "142612.422000", "142612.425000", "142612.427000", "142612.427000", "142612.430000", "142612.432000", "142612.435000", "142612.435000", "142612.437000", "142652.400000", "142652.403000", "142652.405000", "142652.408000", "142652.410000", "142652.410000", "142652.413000", "142652.415000", "142652.418000", "142652.418000", "142652.420000", "142652.423000", "142652.425000", "142652.425000", "142652.428000", "142652.430000", "142652.433000", "142652.435000", "142652.435000", "142652.438000", "142732.398000", "142732.401000", "142732.403000", "142732.406000", "142732.408000", "142732.408000", "142732.411000", "142732.413000", "142732.416000", "142732.416000", "142732.418000", "142732.421000", "142732.423000", "142732.426000", "142732.426000", "142732.428000", "142732.431000", "142732.433000", "142732.433000", "142732.436000", "142812.242000", "142812.244000", "142812.247000", "142812.249000", "142812.249000", "142812.252000", "142812.254000", "142812.257000", "142812.259000", "142812.259000", "142812.262000", "142812.264000", "142812.267000", "142812.269000", "142812.269000", "142812.272000", "142812.274000", "142812.277000", "142812.279000", "142812.282000"],
      "InstanceCreationTime": ["141852.405000", "141852.408000", "141852.410000", "141852.413000", "141852.413000", "141852.415000", "141852.418000", "141852.420000", "141852.423000", "141852.423000", "141852.425000", "141852.428000", "141852.430000", "141852.430000", "141852.433000", "141852.440000", "141852.443000", "141852.443000", "141852.445000", "141852.448000", "141932.399000", "141932.401000", "141932.404000", "141932.406000", "141932.409000", "141932.409000", "141932.411000", "141932.414000", "141932.416000", "141932.416000", "141932.419000", "141932.421000", "141932.424000", "141932.426000", "141932.426000", "141932.429000", "141932.431000", "141932.434000", "141932.434000", "141932.436000", "142012.399000", "142012.402000", "142012.404000", "142012.407000", "142012.409000", "142012.409000", "142012.412000", "142012.417000", "142012.419000", "142012.419000", "142012.422000", "142012.424000", "142012.427000", "142012.427000", "142012.429000", "142012.432000", "142012.434000", "142012.434000", "142012.437000", "142012.439000", "142052.400000", "142052.402000", "142052.405000", "142052.407000", "142052.410000", "142052.410000", "142052.412000", "142052.415000", "142052.417000", "142052.417000", "142052.420000", "142052.422000", "142052.425000", "142052.425000", "142052.427000", "142052.430000", "142052.432000", "142052.435000", "142052.435000", "142052.437000", "142132.400000", "142132.403000", "142132.405000", "142132.408000", "142132.410000", "142132.410000", "142132.415000", "142132.418000", "142132.418000", "142132.420000", "142132.423000", "142132.425000", "142132.428000", "142132.428000", "142132.430000", "142132.433000", "142132.435000", "142132.435000", "142132.438000", "142132.440000", "142212.399000", "142212.401000", "142212.404000", "142212.406000", "142212.409000", "142212.409000", "142212.411000", "142212.414000", "142212.416000", "142212.416000", "142212.419000", "142212.421000", "142212.424000", "142212.426000", "142212.426000", "142212.429000", "142212.431000", "142212.434000", "142212.434000", "142212.436000", "142252.399000", "142252.402000", "142252.404000", "142252.412000", "142252.414000", "142252.417000", "142252.417000", "142252.419000", "142252.422000", "142252.424000", "142252.427000", "142252.427000", "142252.429000", "142252.432000", "142252.434000", "142252.434000", "142252.437000", "142252.439000", "142252.442000", "142252.442000", "142332.400000", "142332.402000", "142332.405000", "142332.407000", "142332.410000", "142332.410000", "142332.412000", "142332.415000", "142332.417000", "142332.417000", "142332.420000", "142332.422000", "142332.425000", "142332.425000", "142332.427000", "142332.430000", "142332.432000", "142332.435000", "142332.435000", "142332.437000", "142412.400000", "142412.403000", "142412.405000", "142412.408000", "142412.410000", "142412.410000", "142412.413000", "142412.415000", "142412.418000", "142412.418000", "142412.420000", "142412.423000", "142412.425000", "142412.425000", "142412.428000", "142412.430000", "142412.433000", "142412.435000", "142412.435000", "142412.438000", "142452.398000", "142452.401000", "142452.403000", "142452.406000", "142452.408000", "142452.408000", "142452.411000", "142452.413000", "142452.416000", "142452.416000", "142452.418000", "142452.421000", "142452.423000", "142452.423000", "142452.426000", "142452.428000", "142452.431000", "142452.433000", "142452.433000", "142452.436000", "142532.399000", "142532.402000", "142532.404000", "142532.407000", "142532.409000", "142532.409000", "142532.412000", "142532.414000", "142532.417000", "142532.417000", "142532.419000", "142532.422000", "142532.424000", "142532.427000", "142532.427000", "142532.429000", "142532.432000", "142532.434000", "142532.442000", "142532.444000", "142612.400000", "142612.402000", "142612.405000", "142612.407000", "142612.410000", "142612.410000", "142612.412000", "142612.415000", "142612.417000", "142612.417000", "142612.420000", "142612.422000", "142612.425000", "142612.427000", "142612.427000", "142612.430000", "142612.432000", "142612.435000", "142612.435000", "142612.437000", "142652.400000", "142652.403000", "142652.405000", "142652.408000", "142652.410000", "142652.410000", "142652.413000", "142652.415000", "142652.418000", "142652.418000", "142652.420000", "142652.423000", "142652.425000", "142652.425000", "142652.428000", "142652.430000", "142652.433000", "142652.435000", "142652.435000", "142652.438000", "142732.398000", "142732.401000", "142732.403000", "142732.406000", "142732.408000", "142732.408000", "142732.411000", "142732.413000", "142732.416000", "142732.416000", "142732.418000", "142732.421000", "142732.423000", "142732.426000", "142732.426000", "142732.428000", "142732.431000", "142732.433000", "142732.433000", "142732.436000", "142812.242000", "142812.244000", "142812.247000", "142812.249000", "142812.249000", "142812.252000", "142812.254000", "142812.257000", "142812.259000", "142812.259000", "142812.262000", "142812.264000", "142812.267000", "142812.269000", "142812.269000", "142812.272000", "142812.274000", "142812.277000", "142812.279000", "142812.282000"],
      "InstanceNumber": [1, 2, 3, 4, 5, 6, 7, 8, 9, 10, 11, 12, 13, 14, 15, 16, 17, 18, 19, 20, 21, 22, 23, 24, 25, 26, 27, 28, 29, 30, 31, 32, 33, 34, 35, 36, 37, 38, 39, 40, 41, 42, 43, 44, 45, 46, 47, 48, 49, 50, 51, 52, 53, 54, 55, 56, 57, 58, 59, 60, 61, 62, 63, 64, 65, 66, 67, 68, 69, 70, 71, 72, 73, 74, 75, 76, 77, 78, 79, 80, 81, 82, 83, 84, 85, 86, 87, 88, 89, 90, 91, 92, 93, 94, 95, 96, 97, 98, 99, 100, 101, 102, 103, 104, 105, 106, 107, 108, 109, 110, 111, 112, 113, 114, 115, 116, 117, 118, 119, 120, 121, 122, 123, 124, 125, 126, 127, 128, 129, 130, 131, 132, 133, 134, 135, 136, 137, 138, 139, 140, 141, 142, 143, 144, 145, 146, 147, 148, 149, 150, 151, 152, 153, 154, 155, 156, 157, 158, 159, 160, 161, 162, 163, 164, 165, 166, 167, 168, 169, 170, 171, 172, 173, 174, 175, 176, 177, 178, 179, 180, 181, 182, 183, 184, 185, 186, 187, 188, 189, 190, 191, 192, 193, 194, 195, 196, 197, 198, 199, 200, 201, 202, 203, 204, 205, 206, 207, 208, 209, 210, 211, 212, 213, 214, 215, 216, 217, 218, 219, 220, 221, 222, 223, 224, 225, 226, 227, 228, 229, 230, 231, 232, 233, 234, 235, 236, 237, 238, 239, 240, 241, 242, 243, 244, 245, 246, 247, 248, 249, 250, 251, 252, 253, 254, 255, 256, 257, 258, 259, 260, 261, 262, 263, 264, 265, 266, 267, 268, 269, 270, 271, 272, 273, 274, 275, 276, 277, 278, 279, 280, 281, 282, 283, 284, 285, 286, 287, 288, 289, 290, 291, 292, 293, 294, 295, 296, 297, 298, 299, 300],
      "LargestImagePixelValue": [2039, 1936, 1857, 1914, 1914, 1863, 1925, 1846, 1922, 1896, 1840, 1929, 1899, 1842, 1910, 1947, 1870, 1888, 1907, 1866, 1931, 1879, 1908, 1925, 1857, 1887, 1890, 1838, 1884, 1807, 1889, 1912, 1844, 1894, 1876, 1893, 1923, 1852, 1900, 1916, 1882, 1898, 1867, 1940, 1915, 1892, 1933, 1912, 1866, 1898, 1916, 1873, 1923, 1869, 1880, 1920, 1862, 1852, 1903, 1892, 1900, 1853, 1878, 1877, 1850, 1862, 1888, 1855, 1882, 1885, 1876, 1904, 1930, 1879, 1875, 1902, 1836, 1906, 1903, 1867, 1939, 1859, 1939, 1940, 1855, 1877, 1908, 1837, 1900, 1847, 1893, 1930, 1874, 1905, 1895, 1866, 1919, 1879, 1819, 1906, 1877, 1897, 1941, 1841, 1876, 1924, 1854, 1830, 1902, 1882, 1871, 1920, 1884, 1868, 1922, 1905, 1860, 1863, 1882, 1841, 1880, 1889, 1861, 1888, 1878, 1880, 1874, 1888, 1858, 1881, 1903, 1854, 1896, 1890, 1889, 1899, 1897, 1880, 1926, 1880, 1876, 1905, 1867, 1875, 1893, 1851, 1852, 1870, 1858, 1889, 1878, 1852, 1856, 1893, 1872, 1849, 1928, 1934, 1885, 1906, 1839, 1865, 1901, 1829, 1859, 1848, 1862, 1901, 1852, 1849, 1892, 1858, 1899, 1869, 1841, 1917, 1832, 1930, 1922, 1847, 1911, 1862, 1848, 1932, 1866, 1868, 1899, 1869, 1901, 1853, 1918, 1814, 1858, 1884, 1842, 1818, 1863, 1788, 1857, 1818, 1827, 1999, 1806, 1863, 1836, 1852, 1870, 1857, 1799, 1873, 1845, 1819, 1897, 1830, 1841, 1881, 1811, 1861, 1823, 1846, 1951, 1813, 1793, 1866, 1836, 1865, 1857, 1833, 1874, 1844, 1829, 1865, 1817, 1871, 1883, 1836, 1860, 1854, 1838, 1913, 1851, 1826, 1897, 1798, 1897, 1864, 1841, 1878, 1848, 1839, 1886, 1843, 1812, 1887, 1812, 1874, 1860, 1838, 1875, 1860, 1814, 1886, 1797, 1877, 1801, 1832, 1832, 1782, 1868, 1795, 1836, 1858, 1794, 1821, 1865, 1798, 1853, 1850, 1794, 2043, 1830, 1762, 1840, 1843, 1788, 1908, 1802, 1812, 1881, 1824, 1834, 1860, 1801, 1815, 1824, 1803, 1881, 1827, 1817, 1872],
      "WindowCenter": [610.0, 605.0, 604.0, 605.0, 605.0, 605.0, 604.0, 603.0, 604.0, 603.0, 603.0, 604.0, 603.0, 604.0, 604.0, 604.0, 604.0, 604.0, 604.0, 605.0, 604.0, 605.0, 606.0, 606.0, 606.0, 605.0, 604.0, 605.0, 605.0, 605.0, 605.0, 605.0, 605.0, 605.0, 604.0, 606.0, 605.0, 605.0, 606.0, 605.0, 605.0, 607.0, 606.0, 608.0, 607.0, 607.0, 608.0, 606.0, 605.0, 605.0, 604.0, 605.0, 606.0, 606.0, 607.0, 606.0, 606.0, 606.0, 606.0, 608.0, 608.0, 608.0, 607.0, 607.0, 607.0, 607.0, 606.0, 606.0, 607.0, 606.0, 606.0, 607.0, 606.0, 607.0, 607.0, 606.0, 606.0, 607.0, 606.0, 608.0, 608.0, 608.0, 609.0, 608.0, 608.0, 608.0, 608.0, 607.0, 607.0, 606.0, 607.0, 607.0, 607.0, 608.0, 608.0, 608.0, 609.0, 608.0, 608.0, 609.0, 609.0, 610.0, 610.0, 609.0, 609.0, 610.0, 609.0, 609.0, 609.0, 609.0, 609.0, 609.0, 609.0, 608.0, 610.0, 609.0, 608.0, 608.0, 608.0, 610.0, 611.0, 610.0, 609.0, 610.0, 609.0, 609.0, 609.0, 608.0, 608.0, 609.0, 608.0, 608.0, 609.0, 608.0, 608.0, 609.0, 608.0, 609.0, 610.0, 609.0, 610.0, 611.0, 611.0, 612.0, 611.0, 611.0, 611.0, 610.0, 610.0, 610.0, 610.0, 609.0, 610.0, 610.0, 610.0, 610.0, 611.0, 610.0, 611.0, 611.0, 610.0, 611.0, 610.0, 610.0, 612.0, 611.0, 611.0, 611.0, 611.0, 611.0, 611.0, 610.0, 612.0, 610.0, 610.0, 611.0, 610.0, 613.0, 612.0, 611.0, 611.0, 610.0, 610.0, 611.0, 612.0, 611.0, 611.0, 610.0, 611.0, 612.0, 613.0, 611.0, 612.0, 611.0, 611.0, 611.0, 611.0, 611.0, 611.0, 610.0, 611.0, 612.0, 611.0, 612.0, 611.0, 612.0, 613.0, 614.0, 614.0, 614.0, 613.0, 613.0, 613.0, 612.0, 612.0, 611.0, 611.0, 612.0, 612.0, 614.0, 615.0, 613.0, 612.0, 612.0, 611.0, 612.0, 611.0, 611.0, 613.0, 613.0, 614.0, 613.0, 612.0, 613.0, 612.0, 612.0, 612.0, 612.0, 611.0, 612.0, 612.0, 612.0, 613.0, 613.0, 614.0, 613.0, 615.0, 614.0, 614.0, 613.0, 614.0, 613.0, 613.0, 613.0, 612.0, 613.0, 613.0, 613.0, 613.0, 613.0, 613.0, 613.0, 613.0, 613.0, 613.0, 615.0, 615.0, 616.0, 617.0, 615.0, 615.0, 614.0, 613.0, 614.0, 613.0, 613.0, 613.0, 613.0, 613.0, 614.0, 613.0, 612.0, 614.0, 613.0, 612.0, 614.0, 614.0, 614.0, 614.0, 613.0, 614.0, 614.0, 615.0, 615.0, 614.0, 614.0, 616.0, 616.0, 616.0, 616.0],
      "WindowWidth": [1301.0, 1286.0, 1284.0, 1285.0, 1285.0, 1285.0, 1283.0, 1280.0, 1284.0, 1280.0, 1281.0, 1283.0, 1281.0, 1282.0, 1283.0, 1282.0, 1283.0, 1284.0, 1283.0, 1287.0, 1283.0, 1286.0, 1287.0, 1287.0, 1287.0, 1286.0, 1284.0, 1285.0, 1285.0, 1284.0, 1287.0, 1285.0, 1285.0, 1287.0, 1284.0, 1288.0, 1286.0, 1286.0, 1289.0, 1286.0, 1286.0, 1289.0, 1289.0, 1293.0, 1291.0, 1291.0, 1293.0, 1288.0, 1286.0, 1286.0, 1284.0, 1286.0, 1288.0, 1287.0, 1290.0, 1288.0, 1287.0, 1288.0, 1288.0, 1292.0, 1292.0, 1291.0, 1291.0, 1291.0, 1289.0, 1290.0, 1288.0, 1288.0, 1291.0, 1289.0, 1288.0, 1290.0, 1288.0, 1291.0, 1291.0, 1288.0, 1289.0, 1290.0, 1289.0, 1293.0, 1293.0, 1292.0, 1295.0, 1293.0, 1294.0, 1292.0, 1292.0, 1291.0, 1291.0, 1288.0, 1290.0, 1289.0, 1291.0, 1293.0, 1291.0, 1292.0, 1295.0, 1292.0, 1293.0, 1294.0, 1294.0, 1298.0, 1297.0, 1295.0, 1296.0, 1297.0, 1295.0, 1295.0, 1295.0, 1294.0, 1295.0, 1295.0, 1294.0, 1294.0, 1297.0, 1295.0, 1294.0, 1293.0, 1294.0, 1297.0, 1299.0, 1298.0, 1296.0, 1297.0, 1296.0, 1294.0, 1295.0, 1293.0, 1293.0, 1294.0, 1293.0, 1293.0, 1295.0, 1293.0, 1292.0, 1294.0, 1292.0, 1294.0, 1296.0, 1295.0, 1298.0, 1300.0, 1299.0, 1301.0, 1299.0, 1299.0, 1300.0, 1298.0, 1298.0, 1298.0, 1297.0, 1296.0, 1297.0, 1298.0, 1297.0, 1298.0, 1299.0, 1298.0, 1299.0, 1300.0, 1298.0, 1299.0, 1298.0, 1298.0, 1302.0, 1299.0, 1299.0, 1301.0, 1300.0, 1300.0, 1299.0, 1298.0, 1301.0, 1297.0, 1299.0, 1299.0, 1298.0, 1303.0, 1302.0, 1301.0, 1301.0, 1298.0, 1298.0, 1301.0, 1301.0, 1301.0, 1300.0, 1298.0, 1301.0, 1303.0, 1304.0, 1301.0, 1302.0, 1301.0, 1299.0, 1300.0, 1300.0, 1300.0, 1300.0, 1298.0, 1301.0, 1302.0, 1300.0, 1301.0, 1299.0, 1302.0, 1305.0, 1306.0, 1307.0, 1307.0, 1303.0, 1305.0, 1304.0, 1303.0, 1302.0, 1301.0, 1300.0, 1302.0, 1301.0, 1307.0, 1308.0, 1305.0, 1303.0, 1302.0, 1301.0, 1303.0, 1301.0, 1301.0, 1304.0, 1304.0, 1307.0, 1304.0, 1303.0, 1305.0, 1303.0, 1303.0, 1304.0, 1302.0, 1301.0, 1303.0, 1302.0, 1303.0, 1304.0, 1304.0, 1306.0, 1304.0, 1308.0, 1308.0, 1306.0, 1305.0, 1306.0, 1304.0, 1305.0, 1305.0, 1303.0, 1305.0, 1304.0, 1305.0, 1305.0, 1304.0, 1305.0, 1305.0, 1305.0, 1305.0, 1304.0, 1309.0, 1308.0, 1312.0, 1314.0, 1310.0, 1310.0, 1306.0, 1305.0, 1306.0, 1305.0, 1304.0, 1306.0, 1305.0, 1305.0, 1308.0, 1304.0, 1303.0, 1307.0, 1305.0, 1303.0, 1307.0, 1306.0, 1307.0, 1306.0, 1305.0, 1308.0, 1307.0, 1309.0, 1309.0, 1307.0, 1306.0, 1311.0, 1312.0, 1311.0, 1312.0]
    },
    "slices": {}
  }
}