{
  "AcquisitionMatrixPE": 74,
  "AcquisitionNumber": 1,
  "AcquisitionTime": "16:11:31.720000",
  "BandwidthPerPixelPhaseEncode": 27.579,
  "BaseResolution": 74,
  "BodyPartExamined": "HEAD",
  "CoilString": "t:HEA;HEP",
  "ConversionSoftware": "dcm2niix",
  "ConversionSoftwareVersion": "v1.0.20190410  GCC6.3.0",
  "DerivedVendorReportedEchoSpacing": 0.000489993,
  "DeviceSerialNumber": "35256",
  "DwellTime": 2.4e-06,
  "EchoTime": 0.03,
  "EffectiveEchoSpacing": 0.000489993,
  "FlipAngle": 70,
  "ImageOrientationPatientDICOM": [1, 0, 0, 0, 1, 0],
  "ImageType": [
    "ORIGINAL",
    "PRIMARY",
    "M",
    "ND",
    "NORM",
    "MOSAIC"
],
  "ImagingFrequency": 123.223,
  "InPlanePhaseEncodingDirectionDICOM": "COL",
  "InstitutionAddress": "East_Lee_St._2907_Greensboro_NC_US_27401",
  "InstitutionName": "JSNN",
  "InstitutionalDepartmentName": "Department",
  "MRAcquisitionType": "2D",
  "MagneticFieldStrength": 3,
  "Manufacturer": "Siemens",
  "ManufacturersModelName": "TrioTim",
  "Modality": "MR",
  "PartialFourier": 1,
  "PatientPosition": "HFS",
  "PercentPhaseFOV": 100,
  "PhaseEncodingDirection": "j-",
  "PhaseEncodingSteps": 74,
  "PhaseResolution": 1,
  "PixelBandwidth": 2815,
  "ProcedureStepDescription": "head_Cassidy",
  "ProtocolName": "RestingState",
  "PulseSequenceDetails": "%SiemensSeq%_ep2d_bold",
  "ReceiveCoilName": "HeadMatrix",
  "ReconMatrixPE": 74,
  "RepetitionTime": 2,
  "SAR": 0.0936012,
  "ScanOptions": "FS",
  "ScanningSequence": "EP",
  "SequenceName": "_epfid2d1_74",
  "SequenceVariant": "SK",
  "SeriesDescription": "RestingState",
  "SeriesNumber": 3,
  "ShimSetting": [1382, 10458, -8733, 625, -47, -531, -34, 2],
  "SliceThickness": 4,
  "SliceTiming": [1.945, 1.8825, 1.8175, 1.755, 1.6925, 1.63, 1.5675, 1.505, 1.4425, 1.38, 1.3175, 1.255, 1.1925, 1.1275, 1.065, 1.0025, 0.94, 0.8775, 0.815, 0.7525, 0.69, 0.6275, 0.565, 0.5025, 0.4375, 0.375, 0.3125, 0.25, 0.1875, 0.125, 0.0625, 0],
  "SoftwareVersions": "syngo_MR_B19",
  "SpacingBetweenSlices": 4,
  "StationName": "JSNNMRI",
  "TaskName": "rest",
  "TotalReadoutTime": 0.0357695,
  "TxRefAmp": 244.15,
  "dcmmeta_affine": [
    [-2.972972869873047, 0.0, 0.0, 105.18071746826172],
    [0.0, 2.972972869873047, 0.0, -102.20774841308594],
    [0.0, 0.0, 4.0, -52.361446380615234],
    [0.0, 0.0, 0.0, 1.0]
],
  "dcmmeta_reorient_transform": [
    [0.0, -1.0, 0.0, 73.0],
    [1.0, 0.0, 0.0, 0.0],
    [0.0, 0.0, 1.0, 0.0],
    [0.0, 0.0, 0.0, 1.0]
],
  "dcmmeta_shape": [74, 74, 32, 300],
  "dcmmeta_slice_dim": 2,
  "dcmmeta_version": 0.6,
  "global": {
    "const": {
      "AcquisitionMatrix": [74, 0, 0, 74],
      "AngioFlag": "N",
      "BitsAllocated": 16,
      "BitsStored": 12,
      "BodyPartExamined": "HEAD",
      "Columns": 444,
      "EchoNumbers": 1,
      "EchoTime": 30.0,
      "EchoTrainLength": 1,
      "FlipAngle": 70.0,
      "HighBit": 11,
      "ImageOrientationPatient": [1.0, 0.0, 0.0, 0.0, 1.0, 0.0],
      "ImagePositionPatient": [-655.18069982529, -664.81925439835, -52.361446380615],
      "ImageType": [
        "ORIGINAL",
        "PRIMARY",
        "M",
        "ND",
        "NORM",
        "MOSAIC"
],
      "ImagedNucleus": "1H",
      "ImagingFrequency": 123.222694,
      "InPlanePhaseEncodingDirection": "COL",
      "MRAcquisitionType": "2D",
      "MagneticFieldStrength": 3.0,
      "Manufacturer": "SIEMENS",
      "ManufacturerModelName": "TrioTim",
      "Modality": "MR",
      "NumberOfAverages": 1.0,
      "NumberOfPhaseEncodingSteps": 74,
      "PercentPhaseFieldOfView": 100.0,
      "PercentSampling": 100.0,
      "PerformedProcedureStepStartTime": "152921.915000",
      "PhotometricInterpretation": "MONOCHROME2",
      "PixelBandwidth": 2815.0,
      "PixelRepresentation": 0,
      "PixelSpacing": [2.972972869873, 2.972972869873],
      "ProtocolName": "RestingState",
      "RepetitionTime": 2000.0,
      "Rows": 444,
      "SAR": 0.09360116439246,
      "SamplesPerPixel": 1,
      "ScanOptions": "FS",
      "ScanningSequence": "EP",
      "SequenceName": "*epfid2d1_74",
      "SequenceVariant": "SK",
      "SeriesDescription": "RestingState",
      "SeriesNumber": 3,
      "SeriesTime": "161222.100000",
      "SliceLocation": -52.361446380615,
      "SliceThickness": 4.0,
      "SmallestImagePixelValue": 0,
      "SoftwareVersions": "syngo MR B19",
      "SpacingBetweenSlices": 4.0000001230548,
      "SpecificCharacterSet": "ISO_IR 100",
      "StudyID": "1",
      "StudyTime": "152921.800000",
      "TransmitCoilName": "Body",
      "VariableFlipAngleFlag": "N",
      "WindowCenterWidthExplanation": "Algo1",
      "dBdt": 0.0},
    "slices": {}
  },
  "time": {
    "samples": {
      "AcquisitionNumber": [1, 2, 3, 4, 5, 6, 7, 8, 9, 10, 11, 12, 13, 14, 15, 16, 17, 18, 19, 20, 21, 22, 23, 24, 25, 26, 27, 28, 29, 30, 31, 32, 33, 34, 35, 36, 37, 38, 39, 40, 41, 42, 43, 44, 45, 46, 47, 48, 49, 50, 51, 52, 53, 54, 55, 56, 57, 58, 59, 60, 61, 62, 63, 64, 65, 66, 67, 68, 69, 70, 71, 72, 73, 74, 75, 76, 77, 78, 79, 80, 81, 82, 83, 84, 85, 86, 87, 88, 89, 90, 91, 92, 93, 94, 95, 96, 97, 98, 99, 100, 101, 102, 103, 104, 105, 106, 107, 108, 109, 110, 111, 112, 113, 114, 115, 116, 117, 118, 119, 120, 121, 122, 123, 124, 125, 126, 127, 128, 129, 130, 131, 132, 133, 134, 135, 136, 137, 138, 139, 140, 141, 142, 143, 144, 145, 146, 147, 148, 149, 150, 151, 152, 153, 154, 155, 156, 157, 158, 159, 160, 161, 162, 163, 164, 165, 166, 167, 168, 169, 170, 171, 172, 173, 174, 175, 176, 177, 178, 179, 180, 181, 182, 183, 184, 185, 186, 187, 188, 189, 190, 191, 192, 193, 194, 195, 196, 197, 198, 199, 200, 201, 202, 203, 204, 205, 206, 207, 208, 209, 210, 211, 212, 213, 214, 215, 216, 217, 218, 219, 220, 221, 222, 223, 224, 225, 226, 227, 228, 229, 230, 231, 232, 233, 234, 235, 236, 237, 238, 239, 240, 241, 242, 243, 244, 245, 246, 247, 248, 249, 250, 251, 252, 253, 254, 255, 256, 257, 258, 259, 260, 261, 262, 263, 264, 265, 266, 267, 268, 269, 270, 271, 272, 273, 274, 275, 276, 277, 278, 279, 280, 281, 282, 283, 284, 285, 286, 287, 288, 289, 290, 291, 292, 293, 294, 295, 296, 297, 298, 299, 300],
      "AcquisitionTime": ["161131.720000", "161133.727500", "161135.735000", "161137.742500", "161139.752500", "161141.760000", "161143.767500", "161145.775000", "161147.782500", "161149.792500", "161151.800000", "161153.807500", "161155.815000", "161157.822500", "161159.832500", "161201.840000", "161203.847500", "161205.855000", "161207.865000", "161209.872500", "161211.880000", "161213.887500", "161215.895000", "161217.905000", "161219.912500", "161221.920000", "161223.927500", "161225.935000", "161227.945000", "161229.952500", "161231.960000", "161233.967500", "161235.975000", "161237.985000", "161239.992500", "161242.000000", "161244.007500", "161246.017500", "161248.025000", "161250.032500", "161252.040000", "161254.047500", "161256.057500", "161258.065000", "161300.072500", "161302.080000", "161304.087500", "161306.097500", "161308.105000", "161310.112500", "161312.120000", "161314.130000", "161316.137500", "161318.145000", "161320.152500", "161322.160000", "161324.170000", "161326.177500", "161328.185000", "161330.192500", "161332.200000", "161334.210000", "161336.217500", "161338.225000", "161340.232500", "161342.242500", "161344.250000", "161346.257500", "161348.265000", "161350.272500", "161352.282500", "161354.290000", "161356.297500", "161358.305000", "161400.312500", "161402.322500", "161404.330000", "161406.337500", "161408.345000", "161410.352500", "161412.362500", "161414.370000", "161416.377500", "161418.385000", "161420.395000", "161422.402500", "161424.410000", "161426.417500", "161428.425000", "161430.435000", "161432.442500", "161434.450000", "161436.457500", "161438.465000", "161440.475000", "161442.482500", "161444.490000", "161446.497500", "161448.507500", "161450.515000", "161452.522500", "161454.530000", "161456.537500", "161458.547500", "161500.555000", "161502.562500", "161504.570000", "161506.577500", "161508.587500", "161510.595000", "161512.602500", "161514.610000", "161516.620000", "161518.627500", "161520.635000", "161522.642500", "161524.650000", "161526.660000", "161528.667500", "161530.675000", "161532.682500", "161534.690000", "161536.700000", "161538.707500", "161540.715000", "161542.722500", "161544.730000", "161546.740000", "161548.747500", "161550.755000", "161552.762500", "161554.772500", "161556.780000", "161558.787500", "161600.795000", "161602.802500", "161604.812500", "161606.820000", "161608.827500", "161610.835000", "161612.842500", "161614.852500", "161616.860000", "161618.867500", "161620.875000", "161622.885000", "161624.892500", "161626.900000", "161628.907500", "161630.915000", "161632.925000", "161634.932500", "161636.940000", "161638.947500", "161640.955000", "161642.965000", "161644.972500", "161646.980000", "161648.987500", "161650.997500", "161653.005000", "161655.012500", "161657.020000", "161659.027500", "161701.037500", "161703.045000", "161705.052500", "161707.060000", "161709.067500", "161711.077500", "161713.085000", "161715.092500", "161717.100000", "161719.107500", "161721.117500", "161723.125000", "161725.132500", "161727.140000", "161729.150000", "161731.157500", "161733.165000", "161735.172500", "161737.180000", "161739.190000", "161741.197500", "161743.205000", "161745.212500", "161747.220000", "161749.230000", "161751.237500", "161753.245000", "161755.252500", "161757.262500", "161759.270000", "161801.277500", "161803.285000", "161805.292500", "161807.302500", "161809.310000", "161811.317500", "161813.325000", "161815.332500", "161817.342500", "161819.350000", "161821.357500", "161823.365000", "161825.375000", "161827.382500", "161829.390000", "161831.397500", "161833.405000", "161835.415000", "161837.422500", "161839.430000", "161841.437500", "161843.445000", "161845.455000", "161847.462500", "161849.470000", "161851.477500", "161853.487500", "161855.495000", "161857.502500", "161859.510000", "161901.517500", "161903.527500", "161905.535000", "161907.542500", "161909.550000", "161911.557500", "161913.567500", "161915.575000", "161917.582500", "161919.590000", "161921.597500", "161923.607500", "161925.615000", "161927.622500", "161929.630000", "161931.640000", "161933.647500", "161935.655000", "161937.662500", "161939.670000", "161941.680000", "161943.687500", "161945.695000", "161947.702500", "161949.710000", "161951.720000", "161953.727500", "161955.735000", "161957.742500", "161959.752500", "162001.760000", "162003.767500", "162005.775000", "162007.782500", "162009.792500", "162011.800000", "162013.807500", "162015.815000", "162017.822500", "162019.832500", "162021.840000", "162023.847500", "162025.855000", "162027.865000", "162029.872500", "162031.880000", "162033.887500", "162035.895000", "162037.905000", "162039.912500", "162041.920000", "162043.927500", "162045.935000", "162047.945000", "162049.952500", "162051.960000", "162053.967500", "162055.975000", "162057.985000", "162059.992500", "162102.000000", "162104.007500", "162106.017500", "162108.025000", "162110.032500", "162112.040000", "162114.047500", "162116.057500", "162118.065000", "162120.072500", "162122.080000", "162124.087500", "162126.097500", "162128.105000", "162130.112500", "162132.120000"],
      "ContentTime": ["161222.103000", "161222.105000", "161222.108000", "161222.110000", "161222.113000", "161222.113000", "161222.115000", "161222.125000", "161222.128000", "161222.130000", "161222.133000", "161222.133000", "161222.135000", "161222.138000", "161222.145000", "161222.150000", "161222.153000", "161222.155000", "161222.155000", "161222.158000", "161222.160000", "161222.163000", "161222.163000", "161222.165000", "161222.168000", "161302.098000", "161302.101000", "161302.103000", "161302.106000", "161302.108000", "161302.108000", "161302.111000", "161302.113000", "161302.116000", "161302.116000", "161302.118000", "161302.121000", "161302.138000", "161302.138000", "161302.141000", "161302.143000", "161302.146000", "161302.146000", "161302.148000", "161302.151000", "161342.099000", "161342.101000", "161342.104000", "161342.106000", "161342.106000", "161342.109000", "161342.111000", "161342.114000", "161342.114000", "161342.116000", "161342.119000", "161342.121000", "161342.124000", "161342.124000", "161342.126000", "161342.129000", "161342.131000", "161342.131000", "161342.134000", "161342.136000", "161422.099000", "161422.102000", "161422.104000", "161422.107000", "161422.109000", "161422.109000", "161422.112000", "161422.114000", "161422.117000", "161422.117000", "161422.119000", "161422.122000", "161422.124000", "161422.124000", "161422.127000", "161422.129000", "161422.132000", "161422.132000", "161422.134000", "161422.137000", "161502.097000", "161502.100000", "161502.102000", "161502.105000", "161502.107000", "161502.107000", "161502.110000", "161502.112000", "161502.115000", "161502.115000", "161502.117000", "161502.120000", "161502.122000", "161502.122000", "161502.125000", "161502.127000", "161502.130000", "161502.130000", "161502.132000", "161502.135000", "161542.098000", "161542.101000", "161542.103000", "161542.106000", "161542.108000", "161542.108000", "161542.111000", "161542.113000", "161542.116000", "161542.116000", "161542.118000", "161542.121000", "161542.123000", "161542.123000", "161542.126000", "161542.128000", "161542.131000", "161542.131000", "161542.133000", "161542.136000", "161622.099000", "161622.101000", "161622.104000", "161622.106000", "161622.109000", "161622.109000", "161622.111000", "161622.114000", "161622.116000", "161622.116000", "161622.119000", "161622.121000", "161622.124000", "161622.124000", "161622.126000", "161622.129000", "161622.131000", "161622.131000", "161622.134000", "161622.136000", "161702.099000", "161702.102000", "161702.104000", "161702.107000", "161702.109000", "161702.109000", "161702.112000", "161702.114000", "161702.117000", "161702.117000", "161702.119000", "161702.122000", "161702.124000", "161702.124000", "161702.127000", "161702.129000", "161702.132000", "161702.132000", "161702.134000", "161702.137000", "161742.097000", "161742.100000", "161742.102000", "161742.105000", "161742.127000", "161742.130000", "161742.132000", "161742.135000", "161742.137000", "161742.137000", "161742.140000", "161742.142000", "161742.145000", "161742.145000", "161742.147000", "161742.150000", "161742.152000", "161742.152000", "161742.155000", "161742.157000", "161822.098000", "161822.101000", "161822.103000", "161822.106000", "161822.108000", "161822.108000", "161822.111000", "161822.113000", "161822.116000", "161822.116000", "161822.118000", "161822.121000", "161822.123000", "161822.123000", "161822.126000", "161822.128000", "161822.131000", "161822.131000", "161822.133000", "161822.136000", "161902.099000", "161902.101000", "161902.104000", "161902.106000", "161902.109000", "161902.109000", "161902.111000", "161902.114000", "161902.116000", "161902.116000", "161902.119000", "161902.121000", "161902.124000", "161902.124000", "161902.126000", "161902.129000", "161902.131000", "161902.131000", "161902.134000", "161902.136000", "161942.099000", "161942.102000", "161942.104000", "161942.107000", "161942.107000", "161942.109000", "161942.112000", "161942.114000", "161942.114000", "161942.117000", "161942.119000", "161942.122000", "161942.122000", "161942.124000", "161942.127000", "161942.129000", "161942.132000", "161942.132000", "161942.134000", "161942.137000", "162022.097000", "162022.100000", "162022.102000", "162022.105000", "162022.107000", "162022.107000", "162022.110000", "162022.112000", "162022.115000", "162022.115000", "162022.117000", "162022.120000", "162022.122000", "162022.122000", "162022.125000", "162022.127000", "162022.130000", "162022.130000", "162022.132000", "162022.135000", "162102.098000", "162102.101000", "162102.103000", "162102.106000", "162102.108000", "162102.108000", "162102.111000", "162102.113000", "162102.116000", "162102.116000", "162102.118000", "162102.121000", "162102.123000", "162102.123000", "162102.126000", "162102.128000", "162102.131000", "162102.131000", "162102.133000", "162102.136000", "162130.641000", "162130.643000", "162130.646000", "162130.648000", "162130.651000", "162130.651000", "162130.653000", "162130.656000", "162130.658000", "162130.658000", "162130.661000", "162130.663000", "162130.666000", "162130.666000", "162130.668000"],
      "InstanceCreationTime": ["161222.103000", "161222.105000", "161222.108000", "161222.110000", "161222.113000", "161222.113000", "161222.115000", "161222.125000", "161222.128000", "161222.130000", "161222.133000", "161222.133000", "161222.135000", "161222.138000", "161222.145000", "161222.150000", "161222.153000", "161222.155000", "161222.155000", "161222.158000", "161222.160000", "161222.163000", "161222.163000", "161222.165000", "161222.168000", "161302.098000", "161302.101000", "161302.103000", "161302.106000", "161302.108000", "161302.108000", "161302.111000", "161302.113000", "161302.116000", "161302.116000", "161302.118000", "161302.121000", "161302.138000", "161302.138000", "161302.141000", "161302.143000", "161302.146000", "161302.146000", "161302.148000", "161302.151000", "161342.099000", "161342.101000", "161342.104000", "161342.106000", "161342.106000", "161342.109000", "161342.111000", "161342.114000", "161342.114000", "161342.116000", "161342.119000", "161342.121000", "161342.124000", "161342.124000", "161342.126000", "161342.129000", "161342.131000", "161342.131000", "161342.134000", "161342.136000", "161422.099000", "161422.102000", "161422.104000", "161422.107000", "161422.109000", "161422.109000", "161422.112000", "161422.114000", "161422.117000", "161422.117000", "161422.119000", "161422.122000", "161422.124000", "161422.124000", "161422.127000", "161422.129000", "161422.132000", "161422.132000", "161422.134000", "161422.137000", "161502.097000", "161502.100000", "161502.102000", "161502.105000", "161502.107000", "161502.107000", "161502.110000", "161502.112000", "161502.115000", "161502.115000", "161502.117000", "161502.120000", "161502.122000", "161502.122000", "161502.125000", "161502.127000", "161502.130000", "161502.130000", "161502.132000", "161502.135000", "161542.098000", "161542.101000", "161542.103000", "161542.106000", "161542.108000", "161542.108000", "161542.111000", "161542.113000", "161542.116000", "161542.116000", "161542.118000", "161542.121000", "161542.123000", "161542.123000", "161542.126000", "161542.128000", "161542.131000", "161542.131000", "161542.133000", "161542.136000", "161622.099000", "161622.101000", "161622.104000", "161622.106000", "161622.109000", "161622.109000", "161622.111000", "161622.114000", "161622.116000", "161622.116000", "161622.119000", "161622.121000", "161622.124000", "161622.124000", "161622.126000", "161622.129000", "161622.131000", "161622.131000", "161622.134000", "161622.136000", "161702.099000", "161702.102000", "161702.104000", "161702.107000", "161702.109000", "161702.109000", "161702.112000", "161702.114000", "161702.117000", "161702.117000", "161702.119000", "161702.122000", "161702.124000", "161702.124000", "161702.127000", "161702.129000", "161702.132000", "161702.132000", "161702.134000", "161702.137000", "161742.097000", "161742.100000", "161742.102000", "161742.105000", "161742.127000", "161742.130000", "161742.132000", "161742.135000", "161742.137000", "161742.137000", "161742.140000", "161742.142000", "161742.145000", "161742.145000", "161742.147000", "161742.150000", "161742.152000", "161742.152000", "161742.155000", "161742.157000", "161822.098000", "161822.101000", "161822.103000", "161822.106000", "161822.108000", "161822.108000", "161822.111000", "161822.113000", "161822.116000", "161822.116000", "161822.118000", "161822.121000", "161822.123000", "161822.123000", "161822.126000", "161822.128000", "161822.131000", "161822.131000", "161822.133000", "161822.136000", "161902.099000", "161902.101000", "161902.104000", "161902.106000", "161902.109000", "161902.109000", "161902.111000", "161902.114000", "161902.116000", "161902.116000", "161902.119000", "161902.121000", "161902.124000", "161902.124000", "161902.126000", "161902.129000", "161902.131000", "161902.131000", "161902.134000", "161902.136000", "161942.099000", "161942.102000", "161942.104000", "161942.107000", "161942.107000", "161942.109000", "161942.112000", "161942.114000", "161942.114000", "161942.117000", "161942.119000", "161942.122000", "161942.122000", "161942.124000", "161942.127000", "161942.129000", "161942.132000", "161942.132000", "161942.134000", "161942.137000", "162022.097000", "162022.100000", "162022.102000", "162022.105000", "162022.107000", "162022.107000", "162022.110000", "162022.112000", "162022.115000", "162022.115000", "162022.117000", "162022.120000", "162022.122000", "162022.122000", "162022.125000", "162022.127000", "162022.130000", "162022.130000", "162022.132000", "162022.135000", "162102.098000", "162102.101000", "162102.103000", "162102.106000", "162102.108000", "162102.108000", "162102.111000", "162102.113000", "162102.116000", "162102.116000", "162102.118000", "162102.121000", "162102.123000", "162102.123000", "162102.126000", "162102.128000", "162102.131000", "162102.131000", "162102.133000", "162102.136000", "162130.641000", "162130.643000", "162130.646000", "162130.648000", "162130.651000", "162130.651000", "162130.653000", "162130.656000", "162130.658000", "162130.658000", "162130.661000", "162130.663000", "162130.666000", "162130.666000", "162130.668000"],
      "InstanceNumber": [1, 2, 3, 4, 5, 6, 7, 8, 9, 10, 11, 12, 13, 14, 15, 16, 17, 18, 19, 20, 21, 22, 23, 24, 25, 26, 27, 28, 29, 30, 31, 32, 33, 34, 35, 36, 37, 38, 39, 40, 41, 42, 43, 44, 45, 46, 47, 48, 49, 50, 51, 52, 53, 54, 55, 56, 57, 58, 59, 60, 61, 62, 63, 64, 65, 66, 67, 68, 69, 70, 71, 72, 73, 74, 75, 76, 77, 78, 79, 80, 81, 82, 83, 84, 85, 86, 87, 88, 89, 90, 91, 92, 93, 94, 95, 96, 97, 98, 99, 100, 101, 102, 103, 104, 105, 106, 107, 108, 109, 110, 111, 112, 113, 114, 115, 116, 117, 118, 119, 120, 121, 122, 123, 124, 125, 126, 127, 128, 129, 130, 131, 132, 133, 134, 135, 136, 137, 138, 139, 140, 141, 142, 143, 144, 145, 146, 147, 148, 149, 150, 151, 152, 153, 154, 155, 156, 157, 158, 159, 160, 161, 162, 163, 164, 165, 166, 167, 168, 169, 170, 171, 172, 173, 174, 175, 176, 177, 178, 179, 180, 181, 182, 183, 184, 185, 186, 187, 188, 189, 190, 191, 192, 193, 194, 195, 196, 197, 198, 199, 200, 201, 202, 203, 204, 205, 206, 207, 208, 209, 210, 211, 212, 213, 214, 215, 216, 217, 218, 219, 220, 221, 222, 223, 224, 225, 226, 227, 228, 229, 230, 231, 232, 233, 234, 235, 236, 237, 238, 239, 240, 241, 242, 243, 244, 245, 246, 247, 248, 249, 250, 251, 252, 253, 254, 255, 256, 257, 258, 259, 260, 261, 262, 263, 264, 265, 266, 267, 268, 269, 270, 271, 272, 273, 274, 275, 276, 277, 278, 279, 280, 281, 282, 283, 284, 285, 286, 287, 288, 289, 290, 291, 292, 293, 294, 295, 296, 297, 298, 299, 300],
      "LargestImagePixelValue": [1688, 1651, 1890, 1631, 1601, 1790, 1647, 1619, 1621, 1657, 1646, 1886, 1635, 1634, 1637, 1616, 1626, 1635, 1618, 1618, 1599, 1620, 1612, 1626, 1762, 1633, 1631, 1667, 1648, 1639, 1809, 1890, 1603, 1584, 1836, 1607, 1615, 1879, 1785, 1617, 1627, 1785, 1650, 1633, 1732, 1644, 1628, 1880, 1659, 1616, 1638, 1710, 1632, 1693, 1796, 1621, 1604, 2045, 1643, 1630, 1628, 1739, 1651, 1611, 1688, 1728, 1645, 1650, 1646, 1659, 1946, 1640, 1615, 1638, 1771, 1764, 1726, 1639, 1627, 1762, 1783, 1657, 1672, 1944, 1748, 1620, 1631, 1882, 2042, 1755, 1601, 1753, 2074, 1655, 1921, 1630, 1653, 1652, 1929, 1678, 1636, 1645, 1632, 1906, 1987, 1645, 1633, 1916, 1785, 1675, 1933, 1709, 1665, 1641, 1738, 1735, 1642, 1819, 1858, 1825, 1677, 1681, 2009, 1685, 1657, 1761, 1894, 1646, 1837, 1803, 1676, 1899, 1677, 1711, 1661, 1669, 2068, 1829, 1688, 1795, 1981, 1638, 1736, 1708, 1651, 1764, 2045, 1662, 1695, 1670, 1677, 1684, 1975, 1670, 1667, 1645, 1891, 2082, 1657, 1690, 1951, 1670, 1716, 1891, 1892, 1687, 1671, 1947, 1635, 1773, 1962, 1661, 1685, 1694, 1655, 1640, 1691, 1677, 2138, 1923, 1633, 1678, 1700, 2049, 1863, 1679, 2177, 1693, 1982, 1866, 2063, 1673, 2077, 1879, 1823, 1675, 1733, 2003, 1702, 2006, 1679, 1632, 1683, 1692, 1870, 1703, 1652, 1659, 1681, 1809, 1704, 1678, 1678, 1682, 1681, 1665, 1965, 1794, 1674, 2079, 1687, 1695, 2156, 1703, 2148, 1766, 2211, 1659, 1733, 1833, 2092, 1983, 1696, 1651, 1659, 1662, 2068, 1741, 1696, 1760, 1998, 1726, 1727, 1770, 1684, 1888, 1652, 1681, 1896, 1680, 1725, 1686, 1679, 2098, 1685, 1922, 1676, 1974, 1680, 1702, 2004, 1677, 1655, 1689, 1664, 1632, 1981, 1649, 1694, 1666, 1736, 2234, 1666, 1714, 1744, 1677, 1683, 1848, 1706, 2194, 1659, 2230, 1650, 2201, 1695, 1638, 1775, 1648, 2075, 1673, 1660, 1690, 1726, 1946, 1700, 1655, 1642, 1610, 1684, 1668],
      "WindowCenter": [631.0, 629.0, 629.0, 626.0, 628.0, 630.0, 627.0, 628.0, 629.0, 629.0, 628.0, 629.0, 627.0, 627.0, 630.0, 629.0, 628.0, 629.0, 629.0, 628.0, 629.0, 629.0, 628.0, 628.0, 630.0, 629.0, 629.0, 629.0, 630.0, 629.0, 631.0, 630.0, 628.0, 630.0, 631.0, 629.0, 629.0, 632.0, 630.0, 629.0, 630.0, 631.0, 629.0, 631.0, 631.0, 629.0, 630.0, 632.0, 630.0, 630.0, 631.0, 631.0, 630.0, 631.0, 633.0, 632.0, 630.0, 633.0, 630.0, 630.0, 632.0, 632.0, 630.0, 630.0, 633.0, 632.0, 631.0, 631.0, 630.0, 632.0, 635.0, 631.0, 630.0, 632.0, 633.0, 632.0, 633.0, 632.0, 631.0, 633.0, 633.0, 632.0, 632.0, 634.0, 633.0, 632.0, 632.0, 634.0, 635.0, 632.0, 631.0, 632.0, 634.0, 632.0, 633.0, 631.0, 630.0, 632.0, 634.0, 631.0, 631.0, 633.0, 633.0, 634.0, 634.0, 632.0, 632.0, 635.0, 633.0, 632.0, 634.0, 633.0, 633.0, 633.0, 634.0, 634.0, 634.0, 635.0, 635.0, 633.0, 632.0, 634.0, 636.0, 633.0, 633.0, 635.0, 635.0, 632.0, 634.0, 635.0, 632.0, 634.0, 632.0, 634.0, 634.0, 634.0, 636.0, 634.0, 633.0, 636.0, 637.0, 633.0, 635.0, 634.0, 634.0, 635.0, 636.0, 634.0, 634.0, 635.0, 635.0, 634.0, 636.0, 635.0, 635.0, 635.0, 636.0, 636.0, 635.0, 635.0, 636.0, 634.0, 635.0, 636.0, 637.0, 634.0, 635.0, 637.0, 635.0, 635.0, 637.0, 633.0, 634.0, 636.0, 635.0, 635.0, 637.0, 636.0, 639.0, 636.0, 633.0, 635.0, 635.0, 637.0, 637.0, 635.0, 638.0, 635.0, 637.0, 636.0, 636.0, 633.0, 635.0, 633.0, 634.0, 632.0, 632.0, 633.0, 632.0, 635.0, 632.0, 631.0, 632.0, 634.0, 635.0, 633.0, 634.0, 634.0, 636.0, 636.0, 635.0, 636.0, 636.0, 638.0, 637.0, 637.0, 639.0, 637.0, 637.0, 640.0, 637.0, 637.0, 639.0, 637.0, 640.0, 636.0, 639.0, 636.0, 637.0, 637.0, 636.0, 634.0, 633.0, 633.0, 632.0, 632.0, 634.0, 632.0, 633.0, 633.0, 634.0, 632.0, 633.0, 634.0, 632.0, 632.0, 632.0, 633.0, 634.0, 632.0, 634.0, 634.0, 634.0, 637.0, 634.0, 636.0, 634.0, 636.0, 634.0, 636.0, 637.0, 634.0, 635.0, 636.0, 638.0, 637.0, 639.0, 636.0, 637.0, 638.0, 638.0, 640.0, 636.0, 637.0, 638.0, 637.0, 637.0, 638.0, 638.0, 642.0, 638.0, 641.0, 637.0, 640.0, 636.0, 635.0, 636.0, 635.0, 638.0, 635.0, 636.0, 637.0, 637.0, 638.0, 637.0, 637.0, 637.0, 638.0, 638.0, 637.0],
      "WindowWidth": [1347.0, 1341.0, 1343.0, 1336.0, 1340.0, 1344.0, 1338.0, 1339.0, 1342.0, 1341.0, 1340.0, 1342.0, 1337.0, 1338.0, 1344.0, 1342.0, 1340.0, 1343.0, 1342.0, 1339.0, 1343.0, 1343.0, 1340.0, 1341.0, 1345.0, 1342.0, 1341.0, 1343.0, 1344.0, 1343.0, 1347.0, 1345.0, 1340.0, 1344.0, 1348.0, 1341.0, 1342.0, 1349.0, 1346.0, 1343.0, 1345.0, 1347.0, 1343.0, 1347.0, 1347.0, 1342.0, 1344.0, 1350.0, 1345.0, 1344.0, 1347.0, 1347.0, 1344.0, 1347.0, 1351.0, 1348.0, 1346.0, 1352.0, 1344.0, 1345.0, 1349.0, 1349.0, 1344.0, 1346.0, 1351.0, 1349.0, 1348.0, 1347.0, 1346.0, 1350.0, 1356.0, 1347.0, 1345.0, 1349.0, 1353.0, 1349.0, 1351.0, 1349.0, 1347.0, 1351.0, 1352.0, 1349.0, 1350.0, 1355.0, 1353.0, 1350.0, 1350.0, 1354.0, 1356.0, 1350.0, 1347.0, 1350.0, 1355.0, 1349.0, 1352.0, 1347.0, 1346.0, 1351.0, 1355.0, 1347.0, 1347.0, 1351.0, 1352.0, 1354.0, 1355.0, 1348.0, 1349.0, 1356.0, 1353.0, 1349.0, 1354.0, 1352.0, 1351.0, 1351.0, 1354.0, 1354.0, 1354.0, 1357.0, 1358.0, 1353.0, 1350.0, 1355.0, 1360.0, 1352.0, 1353.0, 1357.0, 1357.0, 1351.0, 1354.0, 1356.0, 1351.0, 1353.0, 1351.0, 1355.0, 1355.0, 1355.0, 1360.0, 1355.0, 1353.0, 1359.0, 1361.0, 1353.0, 1357.0, 1355.0, 1354.0, 1356.0, 1358.0, 1354.0, 1354.0, 1357.0, 1357.0, 1356.0, 1360.0, 1357.0, 1357.0, 1357.0, 1361.0, 1361.0, 1357.0, 1357.0, 1360.0, 1356.0, 1356.0, 1360.0, 1361.0, 1356.0, 1357.0, 1363.0, 1357.0, 1358.0, 1362.0, 1353.0, 1355.0, 1359.0, 1357.0, 1359.0, 1361.0, 1361.0, 1367.0, 1359.0, 1353.0, 1357.0, 1358.0, 1363.0, 1361.0, 1357.0, 1365.0, 1357.0, 1363.0, 1359.0, 1361.0, 1351.0, 1356.0, 1353.0, 1354.0, 1351.0, 1350.0, 1352.0, 1350.0, 1357.0, 1350.0, 1348.0, 1350.0, 1354.0, 1358.0, 1352.0, 1354.0, 1355.0, 1360.0, 1361.0, 1357.0, 1359.0, 1360.0, 1364.0, 1362.0, 1361.0, 1367.0, 1363.0, 1362.0, 1370.0, 1362.0, 1362.0, 1367.0, 1361.0, 1370.0, 1361.0, 1366.0, 1359.0, 1363.0, 1363.0, 1359.0, 1354.0, 1353.0, 1353.0, 1350.0, 1350.0, 1355.0, 1349.0, 1352.0, 1352.0, 1353.0, 1349.0, 1351.0, 1354.0, 1351.0, 1349.0, 1349.0, 1353.0, 1354.0, 1350.0, 1354.0, 1353.0, 1355.0, 1360.0, 1354.0, 1360.0, 1355.0, 1360.0, 1354.0, 1360.0, 1363.0, 1356.0, 1356.0, 1359.0, 1366.0, 1361.0, 1367.0, 1361.0, 1361.0, 1366.0, 1365.0, 1368.0, 1359.0, 1362.0, 1364.0, 1363.0, 1362.0, 1365.0, 1366.0, 1374.0, 1364.0, 1372.0, 1361.0, 1370.0, 1359.0, 1357.0, 1359.0, 1357.0, 1365.0, 1357.0, 1359.0, 1362.0, 1363.0, 1365.0, 1361.0, 1361.0, 1362.0, 1365.0, 1364.0, 1363.0]
    },
    "slices": {}
  }
}