{
  "AcquisitionMatrixPE": 74,
  "AcquisitionNumber": 1,
  "AcquisitionTime": "09:55:45.485000",
  "BandwidthPerPixelPhaseEncode": 27.579,
  "BaseResolution": 74,
  "BodyPartExamined": "HEAD",
  "CoilString": "t:HEA;HEP",
  "ConversionSoftware": "dcm2niix",
  "ConversionSoftwareVersion": "v1.0.20190410  GCC6.3.0",
  "DerivedVendorReportedEchoSpacing": 0.000489993,
  "DeviceSerialNumber": "35256",
  "DwellTime": 2.4e-06,
  "EchoTime": 0.03,
  "EffectiveEchoSpacing": 0.000489993,
  "FlipAngle": 70,
  "ImageOrientationPatientDICOM": [1, 0, 0, 0, 1, 0],
  "ImageType": [
    "ORIGINAL",
    "PRIMARY",
    "M",
    "ND",
    "NORM",
    "MOSAIC"
],
  "ImagingFrequency": 123.223,
  "InPlanePhaseEncodingDirectionDICOM": "COL",
  "InstitutionAddress": "East_Lee_St._2907_Greensboro_NC_US_27401",
  "InstitutionName": "JSNN",
  "InstitutionalDepartmentName": "Department",
  "MRAcquisitionType": "2D",
  "MagneticFieldStrength": 3,
  "Manufacturer": "Siemens",
  "ManufacturersModelName": "TrioTim",
  "Modality": "MR",
  "PartialFourier": 1,
  "PatientPosition": "HFS",
  "PercentPhaseFOV": 100,
  "PhaseEncodingDirection": "j-",
  "PhaseEncodingSteps": 74,
  "PhaseResolution": 1,
  "PixelBandwidth": 2815,
  "ProcedureStepDescription": "head_Cassidy",
  "ProtocolName": "RestingState",
  "PulseSequenceDetails": "%SiemensSeq%_ep2d_bold",
  "ReceiveCoilName": "HeadMatrix",
  "ReconMatrixPE": 74,
  "RepetitionTime": 2,
  "SAR": 0.123854,
  "ScanOptions": "FS",
  "ScanningSequence": "EP",
  "SequenceName": "_epfid2d1_74",
  "SequenceVariant": "SK",
  "SeriesDescription": "RestingState",
  "SeriesNumber": 3,
  "ShimSetting": [1430, 10725, -8788, 474, -1, -476, -8, -207],
  "SliceThickness": 4,
  "SliceTiming": [1.9425, 1.88, 1.8175, 1.755, 1.6925, 1.63, 1.5675, 1.505, 1.4425, 1.38, 1.315, 1.2525, 1.19, 1.1275, 1.065, 1.0025, 0.94, 0.8775, 0.815, 0.7525, 0.69, 0.625, 0.5625, 0.5, 0.4375, 0.375, 0.3125, 0.25, 0.1875, 0.125, 0.0625, 0],
  "SoftwareVersions": "syngo_MR_B19",
  "SpacingBetweenSlices": 4,
  "StationName": "JSNNMRI",
  "TaskName": "rest",
  "TotalReadoutTime": 0.0357695,
  "TxRefAmp": 321.979,
  "dcmmeta_affine": [
    [-2.972972869873047, 0.0, 0.0, 105.18071746826172],
    [0.0, 2.972972869873047, 0.0, -91.40774536132812],
    [0.0, 0.0, 4.0, -60.09638595581055],
    [0.0, 0.0, 0.0, 1.0]
],
  "dcmmeta_reorient_transform": [
    [0.0, -1.0, 0.0, 73.0],
    [1.0, 0.0, 0.0, 0.0],
    [0.0, 0.0, 1.0, 0.0],
    [0.0, 0.0, 0.0, 1.0]
],
  "dcmmeta_shape": [74, 74, 32, 300],
  "dcmmeta_slice_dim": 2,
  "dcmmeta_version": 0.6,
  "global": {
    "const": {
      "AcquisitionMatrix": [74, 0, 0, 74],
      "AngioFlag": "N",
      "BitsAllocated": 16,
      "BitsStored": 12,
      "BodyPartExamined": "HEAD",
      "Columns": 444,
      "EchoNumbers": 1,
      "EchoTime": 30.0,
      "EchoTrainLength": 1,
      "FlipAngle": 70.0,
      "HighBit": 11,
      "ImageOrientationPatient": [1.0, 0.0, 0.0, 0.0, 1.0, 0.0],
      "ImagePositionPatient": [-655.18069982529, -675.61925411224, -60.096385955811],
      "ImageType": [
        "ORIGINAL",
        "PRIMARY",
        "M",
        "ND",
        "NORM",
        "MOSAIC"
],
      "ImagedNucleus": "1H",
      "ImagingFrequency": 123.223074,
      "InPlanePhaseEncodingDirection": "COL",
      "MRAcquisitionType": "2D",
      "MagneticFieldStrength": 3.0,
      "Manufacturer": "SIEMENS",
      "ManufacturerModelName": "TrioTim",
      "Modality": "MR",
      "NumberOfAverages": 1.0,
      "NumberOfPhaseEncodingSteps": 74,
      "PercentPhaseFieldOfView": 100.0,
      "PercentSampling": 100.0,
      "PerformedProcedureStepStartTime": "091305.986000",
      "PhotometricInterpretation": "MONOCHROME2",
      "PixelBandwidth": 2815.0,
      "PixelRepresentation": 0,
      "PixelSpacing": [2.972972869873, 2.972972869873],
      "ProtocolName": "RestingState",
      "RepetitionTime": 2000.0,
      "Rows": 444,
      "SAR": 0.12385419349975,
      "SamplesPerPixel": 1,
      "ScanOptions": "FS",
      "ScanningSequence": "EP",
      "SequenceName": "*epfid2d1_74",
      "SequenceVariant": "SK",
      "SeriesDescription": "RestingState",
      "SeriesNumber": 3,
      "SeriesTime": "095640.784000",
      "SliceLocation": -60.096385955811,
      "SliceThickness": 4.0,
      "SmallestImagePixelValue": 0,
      "SoftwareVersions": "syngo MR B19",
      "SpacingBetweenSlices": 4.0,
      "SpecificCharacterSet": "ISO_IR 100",
      "StudyID": "1",
      "StudyTime": "091305.888000",
      "TransmitCoilName": "Body",
      "VariableFlipAngleFlag": "N",
      "WindowCenterWidthExplanation": "Algo1",
      "dBdt": 0.0},
    "slices": {}
  },
  "time": {
    "samples": {
      "AcquisitionNumber": [1, 2, 3, 4, 5, 6, 7, 8, 9, 10, 11, 12, 13, 14, 15, 16, 17, 18, 19, 20, 21, 22, 23, 24, 25, 26, 27, 28, 29, 30, 31, 32, 33, 34, 35, 36, 37, 38, 39, 40, 41, 42, 43, 44, 45, 46, 47, 48, 49, 50, 51, 52, 53, 54, 55, 56, 57, 58, 59, 60, 61, 62, 63, 64, 65, 66, 67, 68, 69, 70, 71, 72, 73, 74, 75, 76, 77, 78, 79, 80, 81, 82, 83, 84, 85, 86, 87, 88, 89, 90, 91, 92, 93, 94, 95, 96, 97, 98, 99, 100, 101, 102, 103, 104, 105, 106, 107, 108, 109, 110, 111, 112, 113, 114, 115, 116, 117, 118, 119, 120, 121, 122, 123, 124, 125, 126, 127, 128, 129, 130, 131, 132, 133, 134, 135, 136, 137, 138, 139, 140, 141, 142, 143, 144, 145, 146, 147, 148, 149, 150, 151, 152, 153, 154, 155, 156, 157, 158, 159, 160, 161, 162, 163, 164, 165, 166, 167, 168, 169, 170, 171, 172, 173, 174, 175, 176, 177, 178, 179, 180, 181, 182, 183, 184, 185, 186, 187, 188, 189, 190, 191, 192, 193, 194, 195, 196, 197, 198, 199, 200, 201, 202, 203, 204, 205, 206, 207, 208, 209, 210, 211, 212, 213, 214, 215, 216, 217, 218, 219, 220, 221, 222, 223, 224, 225, 226, 227, 228, 229, 230, 231, 232, 233, 234, 235, 236, 237, 238, 239, 240, 241, 242, 243, 244, 245, 246, 247, 248, 249, 250, 251, 252, 253, 254, 255, 256, 257, 258, 259, 260, 261, 262, 263, 264, 265, 266, 267, 268, 269, 270, 271, 272, 273, 274, 275, 276, 277, 278, 279, 280, 281, 282, 283, 284, 285, 286, 287, 288, 289, 290, 291, 292, 293, 294, 295, 296, 297, 298, 299, 300],
      "AcquisitionTime": ["095545.485000", "095547.495000", "095549.502500", "095551.510000", "095553.517500", "095555.525000", "095557.535000", "095559.542500", "095601.550000", "095603.557500", "095605.567500", "095607.575000", "095609.582500", "095611.590000", "095613.597500", "095615.607500", "095617.615000", "095619.622500", "095621.630000", "095623.637500", "095625.647500", "095627.655000", "095629.662500", "095631.670000", "095633.680000", "095635.687500", "095637.695000", "095639.702500", "095641.710000", "095643.720000", "095645.727500", "095647.735000", "095649.742500", "095651.750000", "095653.760000", "095655.767500", "095657.775000", "095659.782500", "095701.792500", "095703.800000", "095705.807500", "095707.815000", "095709.822500", "095711.832500", "095713.840000", "095715.847500", "095717.855000", "095719.862500", "095721.872500", "095723.880000", "095725.887500", "095727.895000", "095729.902500", "095731.912500", "095733.920000", "095735.927500", "095737.935000", "095739.945000", "095741.952500", "095743.960000", "095745.967500", "095747.975000", "095749.985000", "095751.992500", "095754.000000", "095756.007500", "095758.015000", "095800.025000", "095802.032500", "095804.040000", "095806.047500", "095808.057500", "095810.065000", "095812.072500", "095814.080000", "095816.087500", "095818.097500", "095820.105000", "095822.112500", "095824.120000", "095826.127500", "095828.137500", "095830.145000", "095832.152500", "095834.160000", "095836.170000", "095838.177500", "095840.185000", "095842.192500", "095844.200000", "095846.210000", "095848.217500", "095850.225000", "095852.232500", "095854.240000", "095856.250000", "095858.257500", "095900.265000", "095902.272500", "095904.280000", "095906.290000", "095908.297500", "095910.305000", "095912.312500", "095914.322500", "095916.330000", "095918.337500", "095920.345000", "095922.352500", "095924.362500", "095926.370000", "095928.377500", "095930.385000", "095932.392500", "095934.402500", "095936.410000", "095938.417500", "095940.425000", "095942.435000", "095944.442500", "095946.450000", "095948.457500", "095950.465000", "095952.475000", "095954.482500", "095956.490000", "095958.497500", "100000.505000", "100002.515000", "100004.522500", "100006.530000", "100008.537500", "100010.547500", "100012.555000", "100014.562500", "100016.570000", "100018.577500", "100020.587500", "100022.595000", "100024.602500", "100026.610000", "100028.617500", "100030.627500", "100032.635000", "100034.642500", "100036.650000", "100038.657500", "100040.667500", "100042.675000", "100044.682500", "100046.690000", "100048.700000", "100050.707500", "100052.715000", "100054.722500", "100056.730000", "100058.740000", "100100.747500", "100102.755000", "100104.762500", "100106.770000", "100108.780000", "100110.787500", "100112.795000", "100114.802500", "100116.812500", "100118.820000", "100120.827500", "100122.835000", "100124.842500", "100126.852500", "100128.860000", "100130.867500", "100132.875000", "100134.882500", "100136.892500", "100138.900000", "100140.907500", "100142.915000", "100144.925000", "100146.932500", "100148.940000", "100150.947500", "100152.955000", "100154.965000", "100156.972500", "100158.980000", "100200.987500", "100202.995000", "100205.005000", "100207.012500", "100209.020000", "100211.027500", "100213.035000", "100215.045000", "100217.052500", "100219.060000", "100221.067500", "100223.077500", "100225.085000", "100227.092500", "100229.100000", "100231.107500", "100233.117500", "100235.125000", "100237.132500", "100239.140000", "100241.147500", "100243.157500", "100245.165000", "100247.172500", "100249.180000", "100251.190000", "100253.197500", "100255.205000", "100257.212500", "100259.220000", "100301.230000", "100303.237500", "100305.245000", "100307.252500", "100309.260000", "100311.270000", "100313.277500", "100315.285000", "100317.292500", "100319.302500", "100321.310000", "100323.317500", "100325.325000", "100327.332500", "100329.342500", "100331.350000", "100333.357500", "100335.365000", "100337.372500", "100339.382500", "100341.390000", "100343.397500", "100345.405000", "100347.415000", "100349.422500", "100351.430000", "100353.437500", "100355.445000", "100357.455000", "100359.462500", "100401.470000", "100403.477500", "100405.485000", "100407.495000", "100409.502500", "100411.510000", "100413.517500", "100415.525000", "100417.535000", "100419.542500", "100421.550000", "100423.557500", "100425.567500", "100427.575000", "100429.582500", "100431.590000", "100433.597500", "100435.607500", "100437.615000", "100439.622500", "100441.630000", "100443.637500", "100445.647500", "100447.655000", "100449.662500", "100451.670000", "100453.680000", "100455.687500", "100457.695000", "100459.702500", "100501.710000", "100503.720000", "100505.727500", "100507.735000", "100509.742500", "100511.750000", "100513.760000", "100515.767500", "100517.775000", "100519.782500", "100521.792500", "100523.800000", "100525.807500", "100527.815000", "100529.822500", "100531.832500", "100533.840000", "100535.847500", "100537.855000", "100539.862500", "100541.872500", "100543.880000", "100545.887500"],
      "ContentTime": ["095640.787000", "095640.789000", "095640.792000", "095640.794000", "095640.797000", "095640.797000", "095640.799000", "095640.802000", "095640.804000", "095640.804000", "095640.807000", "095640.809000", "095640.812000", "095640.812000", "095640.814000", "095640.817000", "095640.819000", "095640.819000", "095640.822000", "095640.824000", "095640.827000", "095640.829000", "095640.829000", "095640.832000", "095640.834000", "095640.837000", "095640.837000", "095640.839000", "095720.782000", "095720.785000", "095720.787000", "095720.790000", "095720.792000", "095720.792000", "095720.795000", "095720.797000", "095720.800000", "095720.800000", "095720.802000", "095720.805000", "095720.807000", "095720.807000", "095720.810000", "095720.812000", "095720.815000", "095720.815000", "095720.817000", "095720.820000", "095800.783000", "095800.785000", "095800.788000", "095800.790000", "095800.793000", "095800.793000", "095800.795000", "095800.798000", "095800.800000", "095800.800000", "095800.803000", "095800.805000", "095800.808000", "095800.808000", "095800.810000", "095800.813000", "095800.815000", "095800.818000", "095800.818000", "095800.820000", "095840.781000", "095840.783000", "095840.786000", "095840.788000", "095840.791000", "095840.791000", "095840.793000", "095840.796000", "095840.798000", "095840.798000", "095840.801000", "095840.803000", "095840.806000", "095840.806000", "095840.808000", "095840.811000", "095840.813000", "095840.816000", "095840.816000", "095840.818000", "095920.782000", "095920.784000", "095920.787000", "095920.789000", "095920.789000", "095920.792000", "095920.794000", "095920.797000", "095920.799000", "095920.799000", "095920.802000", "095920.804000", "095920.807000", "095920.807000", "095920.809000", "095920.812000", "095920.814000", "095920.814000", "095920.817000", "095920.819000", "100000.782000", "100000.785000", "100000.787000", "100000.790000", "100000.792000", "100000.792000", "100000.795000", "100000.797000", "100000.800000", "100000.800000", "100000.802000", "100000.805000", "100000.807000", "100000.807000", "100000.810000", "100000.812000", "100000.815000", "100000.815000", "100000.817000", "100000.820000", "100040.785000", "100040.785000", "100040.788000", "100040.790000", "100040.793000", "100040.793000", "100040.795000", "100040.798000", "100040.800000", "100040.800000", "100040.803000", "100040.805000", "100040.808000", "100040.808000", "100040.810000", "100040.813000", "100040.815000", "100040.818000", "100040.818000", "100040.820000", "100120.781000", "100120.783000", "100120.786000", "100120.788000", "100120.791000", "100120.791000", "100120.793000", "100120.796000", "100120.798000", "100120.798000", "100120.801000", "100120.803000", "100120.806000", "100120.806000", "100120.808000", "100120.811000", "100120.813000", "100120.813000", "100120.821000", "100120.823000", "100200.781000", "100200.784000", "100200.786000", "100200.789000", "100200.791000", "100200.791000", "100200.794000", "100200.796000", "100200.799000", "100200.799000", "100200.801000", "100200.804000", "100200.806000", "100200.806000", "100200.809000", "100200.811000", "100200.814000", "100200.816000", "100200.816000", "100200.819000", "100240.782000", "100240.785000", "100240.787000", "100240.790000", "100240.792000", "100240.792000", "100240.795000", "100240.797000", "100240.800000", "100240.800000", "100240.802000", "100240.805000", "100240.807000", "100240.807000", "100240.810000", "100240.812000", "100240.815000", "100240.817000", "100240.817000", "100240.820000", "100320.783000", "100320.785000", "100320.788000", "100320.790000", "100320.793000", "100320.793000", "100320.795000", "100320.798000", "100320.800000", "100320.800000", "100320.803000", "100320.805000", "100320.808000", "100320.808000", "100320.810000", "100320.813000", "100320.815000", "100320.815000", "100320.818000", "100320.820000", "100400.781000", "100400.783000", "100400.786000", "100400.788000", "100400.788000", "100400.791000", "100400.793000", "100400.796000", "100400.798000", "100400.798000", "100400.801000", "100400.803000", "100400.806000", "100400.806000", "100400.808000", "100400.811000", "100400.813000", "100400.813000", "100400.816000", "100400.818000", "100440.781000", "100440.784000", "100440.786000", "100440.789000", "100440.789000", "100440.791000", "100440.794000", "100440.796000", "100440.799000", "100440.799000", "100440.801000", "100440.804000", "100440.806000", "100440.806000", "100440.809000", "100440.811000", "100440.814000", "100440.814000", "100440.816000", "100440.819000", "100520.782000", "100520.785000", "100520.787000", "100520.790000", "100520.792000", "100520.792000", "100520.795000", "100520.797000", "100520.800000", "100520.800000", "100520.802000", "100520.805000", "100520.807000", "100520.807000", "100520.822000", "100520.825000", "100520.827000", "100520.827000", "100520.830000", "100520.832000", "100544.835000", "100544.837000", "100544.840000", "100544.840000", "100544.842000", "100544.845000", "100544.847000", "100544.847000", "100544.850000", "100544.852000", "100544.855000", "100544.855000"],
      "InstanceCreationTime": ["095640.787000", "095640.789000", "095640.792000", "095640.794000", "095640.797000", "095640.797000", "095640.799000", "095640.802000", "095640.804000", "095640.804000", "095640.807000", "095640.809000", "095640.812000", "095640.812000", "095640.814000", "095640.817000", "095640.819000", "095640.819000", "095640.822000", "095640.824000", "095640.827000", "095640.829000", "095640.829000", "095640.832000", "095640.834000", "095640.837000", "095640.837000", "095640.839000", "095720.782000", "095720.785000", "095720.787000", "095720.790000", "095720.792000", "095720.792000", "095720.795000", "095720.797000", "095720.800000", "095720.800000", "095720.802000", "095720.805000", "095720.807000", "095720.807000", "095720.810000", "095720.812000", "095720.815000", "095720.815000", "095720.817000", "095720.820000", "095800.783000", "095800.785000", "095800.788000", "095800.790000", "095800.793000", "095800.793000", "095800.795000", "095800.798000", "095800.800000", "095800.800000", "095800.803000", "095800.805000", "095800.808000", "095800.808000", "095800.810000", "095800.813000", "095800.815000", "095800.818000", "095800.818000", "095800.820000", "095840.781000", "095840.783000", "095840.786000", "095840.788000", "095840.791000", "095840.791000", "095840.793000", "095840.796000", "095840.798000", "095840.798000", "095840.801000", "095840.803000", "095840.806000", "095840.806000", "095840.808000", "095840.811000", "095840.813000", "095840.816000", "095840.816000", "095840.818000", "095920.782000", "095920.784000", "095920.787000", "095920.789000", "095920.789000", "095920.792000", "095920.794000", "095920.797000", "095920.799000", "095920.799000", "095920.802000", "095920.804000", "095920.807000", "095920.807000", "095920.809000", "095920.812000", "095920.814000", "095920.814000", "095920.817000", "095920.819000", "100000.782000", "100000.785000", "100000.787000", "100000.790000", "100000.792000", "100000.792000", "100000.795000", "100000.797000", "100000.800000", "100000.800000", "100000.802000", "100000.805000", "100000.807000", "100000.807000", "100000.810000", "100000.812000", "100000.815000", "100000.815000", "100000.817000", "100000.820000", "100040.785000", "100040.785000", "100040.788000", "100040.790000", "100040.793000", "100040.793000", "100040.795000", "100040.798000", "100040.800000", "100040.800000", "100040.803000", "100040.805000", "100040.808000", "100040.808000", "100040.810000", "100040.813000", "100040.815000", "100040.818000", "100040.818000", "100040.820000", "100120.781000", "100120.783000", "100120.786000", "100120.788000", "100120.791000", "100120.791000", "100120.793000", "100120.796000", "100120.798000", "100120.798000", "100120.801000", "100120.803000", "100120.806000", "100120.806000", "100120.808000", "100120.811000", "100120.813000", "100120.813000", "100120.821000", "100120.823000", "100200.781000", "100200.784000", "100200.786000", "100200.789000", "100200.791000", "100200.791000", "100200.794000", "100200.796000", "100200.799000", "100200.799000", "100200.801000", "100200.804000", "100200.806000", "100200.806000", "100200.809000", "100200.811000", "100200.814000", "100200.816000", "100200.816000", "100200.819000", "100240.782000", "100240.785000", "100240.787000", "100240.790000", "100240.792000", "100240.792000", "100240.795000", "100240.797000", "100240.800000", "100240.800000", "100240.802000", "100240.805000", "100240.807000", "100240.807000", "100240.810000", "100240.812000", "100240.815000", "100240.817000", "100240.817000", "100240.820000", "100320.783000", "100320.785000", "100320.788000", "100320.790000", "100320.793000", "100320.793000", "100320.795000", "100320.798000", "100320.800000", "100320.800000", "100320.803000", "100320.805000", "100320.808000", "100320.808000", "100320.810000", "100320.813000", "100320.815000", "100320.815000", "100320.818000", "100320.820000", "100400.781000", "100400.783000", "100400.786000", "100400.788000", "100400.788000", "100400.791000", "100400.793000", "100400.796000", "100400.798000", "100400.798000", "100400.801000", "100400.803000", "100400.806000", "100400.806000", "100400.808000", "100400.811000", "100400.813000", "100400.813000", "100400.816000", "100400.818000", "100440.781000", "100440.784000", "100440.786000", "100440.789000", "100440.789000", "100440.791000", "100440.794000", "100440.796000", "100440.799000", "100440.799000", "100440.801000", "100440.804000", "100440.806000", "100440.806000", "100440.809000", "100440.811000", "100440.814000", "100440.814000", "100440.816000", "100440.819000", "100520.782000", "100520.785000", "100520.787000", "100520.790000", "100520.792000", "100520.792000", "100520.795000", "100520.797000", "100520.800000", "100520.800000", "100520.802000", "100520.805000", "100520.807000", "100520.807000", "100520.822000", "100520.825000", "100520.827000", "100520.827000", "100520.830000", "100520.832000", "100544.835000", "100544.837000", "100544.840000", "100544.840000", "100544.842000", "100544.845000", "100544.847000", "100544.847000", "100544.850000", "100544.852000", "100544.855000", "100544.855000"],
      "InstanceNumber": [1, 2, 3, 4, 5, 6, 7, 8, 9, 10, 11, 12, 13, 14, 15, 16, 17, 18, 19, 20, 21, 22, 23, 24, 25, 26, 27, 28, 29, 30, 31, 32, 33, 34, 35, 36, 37, 38, 39, 40, 41, 42, 43, 44, 45, 46, 47, 48, 49, 50, 51, 52, 53, 54, 55, 56, 57, 58, 59, 60, 61, 62, 63, 64, 65, 66, 67, 68, 69, 70, 71, 72, 73, 74, 75, 76, 77, 78, 79, 80, 81, 82, 83, 84, 85, 86, 87, 88, 89, 90, 91, 92, 93, 94, 95, 96, 97, 98, 99, 100, 101, 102, 103, 104, 105, 106, 107, 108, 109, 110, 111, 112, 113, 114, 115, 116, 117, 118, 119, 120, 121, 122, 123, 124, 125, 126, 127, 128, 129, 130, 131, 132, 133, 134, 135, 136, 137, 138, 139, 140, 141, 142, 143, 144, 145, 146, 147, 148, 149, 150, 151, 152, 153, 154, 155, 156, 157, 158, 159, 160, 161, 162, 163, 164, 165, 166, 167, 168, 169, 170, 171, 172, 173, 174, 175, 176, 177, 178, 179, 180, 181, 182, 183, 184, 185, 186, 187, 188, 189, 190, 191, 192, 193, 194, 195, 196, 197, 198, 199, 200, 201, 202, 203, 204, 205, 206, 207, 208, 209, 210, 211, 212, 213, 214, 215, 216, 217, 218, 219, 220, 221, 222, 223, 224, 225, 226, 227, 228, 229, 230, 231, 232, 233, 234, 235, 236, 237, 238, 239, 240, 241, 242, 243, 244, 245, 246, 247, 248, 249, 250, 251, 252, 253, 254, 255, 256, 257, 258, 259, 260, 261, 262, 263, 264, 265, 266, 267, 268, 269, 270, 271, 272, 273, 274, 275, 276, 277, 278, 279, 280, 281, 282, 283, 284, 285, 286, 287, 288, 289, 290, 291, 292, 293, 294, 295, 296, 297, 298, 299, 300],
      "LargestImagePixelValue": [1680, 2038, 1811, 1935, 1425, 1405, 1919, 1431, 2029, 1828, 1411, 1702, 1496, 1494, 1526, 1740, 1386, 1649, 1518, 1423, 1915, 1414, 1438, 1428, 1468, 1652, 2276, 2091, 1809, 1513, 1590, 1679, 1456, 2125, 1428, 1580, 1582, 1382, 1659, 1470, 1433, 2087, 1438, 1527, 2048, 1865, 1493, 2018, 2137, 1401, 1440, 1883, 1397, 1870, 1740, 1709, 1507, 1440, 1413, 1856, 1478, 2034, 1703, 1429, 1865, 1441, 2380, 1458, 1565, 1605, 1389, 1544, 1747, 1381, 2159, 1411, 1487, 1487, 1762, 1380, 2270, 1430, 1569, 2342, 1440, 1709, 2017, 1464, 1569, 1558, 1486, 1916, 1427, 1521, 1853, 1411, 1824, 1508, 1970, 1546, 1902, 1664, 1751, 1854, 1392, 2156, 1397, 1758, 1488, 1434, 2696, 1527, 1469, 1821, 1489, 1974, 1671, 1929, 2002, 1426, 2037, 1438, 1925, 1467, 1682, 1575, 1570, 1984, 1447, 1639, 1621, 1365, 2164, 1375, 1397, 1761, 1418, 1480, 2090, 1437, 1494, 2004, 1386, 1580, 1823, 1405, 1743, 1748, 1456, 2115, 1450, 1413, 1576, 1432, 1410, 2171, 1586, 1402, 2271, 1437, 2032, 1615, 1689, 1756, 1672, 1849, 1450, 1543, 1504, 1911, 1474, 1825, 1515, 1669, 1435, 1566, 1422, 1915, 1466, 2320, 1475, 2046, 1401, 1725, 1433, 1426, 1932, 1618, 1751, 1553, 1438, 2047, 1412, 1437, 1938, 1460, 1800, 1447, 1559, 1836, 1499, 1433, 1484, 1789, 1552, 1509, 1605, 1435, 1502, 1992, 1430, 1603, 1643, 1433, 1512, 1610, 1422, 1600, 1464, 1468, 1867, 1955, 1471, 1491, 2336, 1538, 2253, 1669, 1544, 2039, 1388, 1822, 1448, 1677, 1515, 1456, 2227, 1380, 1508, 1442, 1520, 1609, 1711, 1463, 2183, 1393, 1705, 1603, 1412, 2347, 1408, 1621, 1430, 2154, 1505, 1457, 1507, 1486, 1694, 1447, 1484, 2194, 1502, 1441, 2038, 1432, 2040, 1487, 2031, 1496, 1441, 1541, 1524, 1570, 1471, 1538, 1452, 2009, 1424, 1711, 1457, 1567, 1631, 1697, 1584, 1456, 1526, 1499, 1881, 1528, 1472, 1479, 1434, 1485, 1502, 1557, 1925, 1425, 1805, 1468],
      "WindowCenter": [605.0, 604.0, 600.0, 600.0, 596.0, 595.0, 601.0, 598.0, 601.0, 601.0, 596.0, 599.0, 598.0, 598.0, 598.0, 600.0, 595.0, 599.0, 596.0, 596.0, 601.0, 594.0, 596.0, 597.0, 600.0, 603.0, 606.0, 604.0, 600.0, 599.0, 600.0, 600.0, 598.0, 602.0, 598.0, 599.0, 600.0, 597.0, 601.0, 602.0, 601.0, 604.0, 599.0, 602.0, 604.0, 603.0, 601.0, 604.0, 605.0, 597.0, 600.0, 604.0, 600.0, 604.0, 602.0, 604.0, 600.0, 602.0, 601.0, 605.0, 602.0, 606.0, 604.0, 601.0, 604.0, 600.0, 608.0, 602.0, 603.0, 603.0, 601.0, 602.0, 603.0, 600.0, 606.0, 600.0, 601.0, 602.0, 603.0, 601.0, 608.0, 603.0, 604.0, 608.0, 602.0, 604.0, 606.0, 602.0, 602.0, 601.0, 603.0, 605.0, 602.0, 604.0, 606.0, 604.0, 607.0, 604.0, 607.0, 603.0, 606.0, 603.0, 604.0, 604.0, 600.0, 607.0, 601.0, 605.0, 602.0, 603.0, 609.0, 605.0, 605.0, 608.0, 605.0, 609.0, 605.0, 608.0, 607.0, 602.0, 608.0, 602.0, 606.0, 603.0, 606.0, 604.0, 605.0, 607.0, 603.0, 606.0, 605.0, 602.0, 608.0, 604.0, 605.0, 608.0, 606.0, 607.0, 610.0, 605.0, 607.0, 610.0, 605.0, 608.0, 609.0, 605.0, 609.0, 608.0, 606.0, 611.0, 605.0, 607.0, 609.0, 608.0, 607.0, 613.0, 607.0, 606.0, 613.0, 605.0, 610.0, 605.0, 607.0, 607.0, 605.0, 608.0, 604.0, 605.0, 605.0, 609.0, 605.0, 607.0, 605.0, 606.0, 604.0, 605.0, 604.0, 607.0, 603.0, 611.0, 605.0, 610.0, 605.0, 609.0, 606.0, 607.0, 610.0, 609.0, 609.0, 607.0, 605.0, 611.0, 606.0, 606.0, 611.0, 606.0, 608.0, 605.0, 605.0, 609.0, 606.0, 605.0, 608.0, 611.0, 609.0, 608.0, 609.0, 607.0, 608.0, 613.0, 608.0, 609.0, 609.0, 607.0, 607.0, 609.0, 607.0, 610.0, 607.0, 609.0, 613.0, 615.0, 609.0, 609.0, 615.0, 607.0, 611.0, 608.0, 606.0, 610.0, 604.0, 609.0, 605.0, 609.0, 606.0, 606.0, 614.0, 607.0, 607.0, 607.0, 607.0, 608.0, 608.0, 605.0, 612.0, 604.0, 608.0, 606.0, 604.0, 612.0, 605.0, 608.0, 605.0, 613.0, 607.0, 607.0, 607.0, 608.0, 609.0, 607.0, 609.0, 615.0, 609.0, 607.0, 614.0, 608.0, 612.0, 608.0, 611.0, 607.0, 605.0, 608.0, 606.0, 606.0, 606.0, 607.0, 605.0, 611.0, 607.0, 610.0, 608.0, 608.0, 609.0, 609.0, 608.0, 608.0, 607.0, 607.0, 611.0, 608.0, 608.0, 607.0, 608.0, 608.0, 608.0, 610.0, 613.0, 608.0, 613.0, 608.0],
      "WindowWidth": [1282.0, 1279.0, 1269.0, 1270.0, 1261.0, 1259.0, 1272.0, 1266.0, 1270.0, 1270.0, 1261.0, 1267.0, 1265.0, 1265.0, 1265.0, 1270.0, 1259.0, 1267.0, 1261.0, 1260.0, 1272.0, 1257.0, 1261.0, 1262.0, 1270.0, 1276.0, 1281.0, 1277.0, 1269.0, 1267.0, 1268.0, 1268.0, 1266.0, 1273.0, 1265.0, 1268.0, 1269.0, 1262.0, 1272.0, 1274.0, 1273.0, 1278.0, 1269.0, 1273.0, 1277.0, 1277.0, 1271.0, 1279.0, 1279.0, 1262.0, 1271.0, 1279.0, 1270.0, 1277.0, 1275.0, 1278.0, 1271.0, 1276.0, 1272.0, 1281.0, 1275.0, 1283.0, 1278.0, 1274.0, 1278.0, 1271.0, 1288.0, 1275.0, 1277.0, 1276.0, 1272.0, 1276.0, 1276.0, 1271.0, 1282.0, 1271.0, 1272.0, 1276.0, 1277.0, 1273.0, 1286.0, 1276.0, 1280.0, 1287.0, 1275.0, 1278.0, 1281.0, 1274.0, 1275.0, 1272.0, 1276.0, 1281.0, 1275.0, 1279.0, 1283.0, 1279.0, 1285.0, 1280.0, 1286.0, 1277.0, 1283.0, 1276.0, 1280.0, 1279.0, 1270.0, 1284.0, 1273.0, 1281.0, 1275.0, 1277.0, 1290.0, 1282.0, 1281.0, 1288.0, 1281.0, 1289.0, 1281.0, 1288.0, 1284.0, 1276.0, 1288.0, 1275.0, 1284.0, 1277.0, 1283.0, 1279.0, 1282.0, 1286.0, 1277.0, 1284.0, 1282.0, 1277.0, 1288.0, 1282.0, 1283.0, 1289.0, 1284.0, 1287.0, 1293.0, 1283.0, 1287.0, 1293.0, 1282.0, 1288.0, 1290.0, 1283.0, 1290.0, 1289.0, 1284.0, 1296.0, 1281.0, 1287.0, 1291.0, 1289.0, 1286.0, 1301.0, 1287.0, 1284.0, 1300.0, 1283.0, 1292.0, 1282.0, 1286.0, 1286.0, 1281.0, 1289.0, 1279.0, 1283.0, 1281.0, 1291.0, 1281.0, 1286.0, 1282.0, 1284.0, 1280.0, 1281.0, 1280.0, 1286.0, 1278.0, 1293.0, 1282.0, 1292.0, 1283.0, 1291.0, 1286.0, 1287.0, 1293.0, 1293.0, 1290.0, 1287.0, 1282.0, 1296.0, 1285.0, 1286.0, 1294.0, 1284.0, 1289.0, 1283.0, 1283.0, 1291.0, 1284.0, 1283.0, 1289.0, 1296.0, 1292.0, 1290.0, 1292.0, 1287.0, 1290.0, 1300.0, 1289.0, 1291.0, 1292.0, 1286.0, 1287.0, 1292.0, 1286.0, 1294.0, 1288.0, 1293.0, 1302.0, 1306.0, 1292.0, 1292.0, 1304.0, 1287.0, 1296.0, 1288.0, 1285.0, 1293.0, 1281.0, 1291.0, 1282.0, 1291.0, 1286.0, 1285.0, 1304.0, 1288.0, 1288.0, 1288.0, 1287.0, 1289.0, 1288.0, 1282.0, 1297.0, 1281.0, 1288.0, 1285.0, 1281.0, 1297.0, 1282.0, 1288.0, 1282.0, 1299.0, 1287.0, 1287.0, 1286.0, 1290.0, 1291.0, 1287.0, 1292.0, 1306.0, 1291.0, 1287.0, 1302.0, 1289.0, 1299.0, 1290.0, 1296.0, 1287.0, 1283.0, 1289.0, 1285.0, 1286.0, 1286.0, 1286.0, 1283.0, 1296.0, 1287.0, 1294.0, 1289.0, 1289.0, 1291.0, 1291.0, 1290.0, 1289.0, 1288.0, 1288.0, 1296.0, 1291.0, 1289.0, 1288.0, 1289.0, 1290.0, 1290.0, 1295.0, 1300.0, 1291.0, 1299.0, 1290.0]
    },
    "slices": {}
  }
}