{
  "AcquisitionMatrixPE": 74,
  "AcquisitionNumber": 1,
  "AcquisitionTime": "10:11:45.235000",
  "BandwidthPerPixelPhaseEncode": 27.579,
  "BaseResolution": 74,
  "BodyPartExamined": "HEAD",
  "CoilString": "t:HEA;HEP",
  "ConversionSoftware": "dcm2niix",
  "ConversionSoftwareVersion": "v1.0.20190410  GCC6.3.0",
  "DerivedVendorReportedEchoSpacing": 0.000489993,
  "DeviceSerialNumber": "35256",
  "DwellTime": 2.4e-06,
  "EchoTime": 0.03,
  "EffectiveEchoSpacing": 0.000489993,
  "FlipAngle": 70,
  "ImageOrientationPatientDICOM": [1, 0, 0, 0, 1, 0],
  "ImageType": [
    "ORIGINAL",
    "PRIMARY",
    "M",
    "ND",
    "NORM",
    "MOSAIC"
],
  "ImagingFrequency": 123.223,
  "InPlanePhaseEncodingDirectionDICOM": "COL",
  "InstitutionAddress": "East_Lee_St._2907_Greensboro_NC_US_27401",
  "InstitutionName": "JSNN",
  "InstitutionalDepartmentName": "Department",
  "MRAcquisitionType": "2D",
  "MagneticFieldStrength": 3,
  "Manufacturer": "Siemens",
  "ManufacturersModelName": "TrioTim",
  "Modality": "MR",
  "PartialFourier": 1,
  "PatientPosition": "HFS",
  "PercentPhaseFOV": 100,
  "PhaseEncodingDirection": "j-",
  "PhaseEncodingSteps": 74,
  "PhaseResolution": 1,
  "PixelBandwidth": 2815,
  "ProcedureStepDescription": "head_Cassidy",
  "ProtocolName": "RestingState",
  "PulseSequenceDetails": "%SiemensSeq%_ep2d_bold",
  "ReceiveCoilName": "HeadMatrix",
  "ReconMatrixPE": 74,
  "RepetitionTime": 2,
  "SAR": 0.0966405,
  "ScanOptions": "FS",
  "ScanningSequence": "EP",
  "SequenceName": "_epfid2d1_74",
  "SequenceVariant": "SK",
  "SeriesDescription": "RestingState",
  "SeriesNumber": 3,
  "ShimSetting": [1377, 10528, -8887, 196, -77, -670, -24, -114],
  "SliceThickness": 4,
  "SliceTiming": [1.945, 1.8825, 1.82, 1.7575, 1.695, 1.6325, 1.57, 1.505, 1.4425, 1.38, 1.3175, 1.255, 1.1925, 1.13, 1.0675, 1.005, 0.9425, 0.88, 0.815, 0.7525, 0.69, 0.6275, 0.565, 0.5025, 0.44, 0.3775, 0.315, 0.2525, 0.19, 0.125, 0.0625, 0],
  "SoftwareVersions": "syngo_MR_B19",
  "SpacingBetweenSlices": 4,
  "StationName": "JSNNMRI",
  "TaskName": "rest",
  "TotalReadoutTime": 0.0357695,
  "TxRefAmp": 275.197,
  "dcmmeta_affine": [
    [-2.972972869873047, 0.0, 0.0, 105.18071746826172],
    [0.0, 2.972972869873047, 0.0, -95.72581481933594],
    [0.0, 0.0, 4.0, -74.90120697021484],
    [0.0, 0.0, 0.0, 1.0]
],
  "dcmmeta_reorient_transform": [
    [0.0, -1.0, 0.0, 73.0],
    [1.0, 0.0, 0.0, 0.0],
    [0.0, 0.0, 1.0, 0.0],
    [0.0, 0.0, 0.0, 1.0]
],
  "dcmmeta_shape": [74, 74, 32, 300],
  "dcmmeta_slice_dim": 2,
  "dcmmeta_version": 0.6,
  "global": {
    "const": {
      "AcquisitionMatrix": [74, 0, 0, 74],
      "AngioFlag": "N",
      "BitsAllocated": 16,
      "BitsStored": 12,
      "BodyPartExamined": "HEAD",
      "Columns": 444,
      "EchoNumbers": 1,
      "EchoTime": 30.0,
      "EchoTrainLength": 1,
      "FlipAngle": 70.0,
      "HighBit": 11,
      "ImageOrientationPatient": [1.0, 0.0, 0.0, 0.0, 1.0, 0.0],
      "ImagePositionPatient": [-655.18069982529, -671.30118179321, -74.901206970215],
      "ImageType": [
        "ORIGINAL",
        "PRIMARY",
        "M",
        "ND",
        "NORM",
        "MOSAIC"
],
      "ImagedNucleus": "1H",
      "ImagingFrequency": 123.222799,
      "InPlanePhaseEncodingDirection": "COL",
      "MRAcquisitionType": "2D",
      "MagneticFieldStrength": 3.0,
      "Manufacturer": "SIEMENS",
      "ManufacturerModelName": "TrioTim",
      "Modality": "MR",
      "NumberOfAverages": 1.0,
      "NumberOfPhaseEncodingSteps": 74,
      "PercentPhaseFieldOfView": 100.0,
      "PercentSampling": 100.0,
      "PerformedProcedureStepStartTime": "091712.177000",
      "PhotometricInterpretation": "MONOCHROME2",
      "PixelBandwidth": 2815.0,
      "PixelRepresentation": 0,
      "PixelSpacing": [2.972972869873, 2.972972869873],
      "ProtocolName": "RestingState",
      "RepetitionTime": 2000.0,
      "Rows": 444,
      "SAR": 0.09664048439757,
      "SamplesPerPixel": 1,
      "ScanOptions": "FS",
      "ScanningSequence": "EP",
      "SequenceName": "*epfid2d1_74",
      "SequenceVariant": "SK",
      "SeriesDescription": "RestingState",
      "SeriesNumber": 3,
      "SeriesTime": "101228.081000",
      "SliceLocation": -74.901206970215,
      "SliceThickness": 4.0,
      "SmallestImagePixelValue": 0,
      "SoftwareVersions": "syngo MR B19",
      "SpacingBetweenSlices": 4.0000001230548,
      "SpecificCharacterSet": "ISO_IR 100",
      "StudyID": "1",
      "StudyTime": "091712.102000",
      "TransmitCoilName": "Body",
      "VariableFlipAngleFlag": "N",
      "WindowCenterWidthExplanation": "Algo1",
      "dBdt": 0.0},
    "slices": {}
  },
  "time": {
    "samples": {
      "AcquisitionNumber": [1, 2, 3, 4, 5, 6, 7, 8, 9, 10, 11, 12, 13, 14, 15, 16, 17, 18, 19, 20, 21, 22, 23, 24, 25, 26, 27, 28, 29, 30, 31, 32, 33, 34, 35, 36, 37, 38, 39, 40, 41, 42, 43, 44, 45, 46, 47, 48, 49, 50, 51, 52, 53, 54, 55, 56, 57, 58, 59, 60, 61, 62, 63, 64, 65, 66, 67, 68, 69, 70, 71, 72, 73, 74, 75, 76, 77, 78, 79, 80, 81, 82, 83, 84, 85, 86, 87, 88, 89, 90, 91, 92, 93, 94, 95, 96, 97, 98, 99, 100, 101, 102, 103, 104, 105, 106, 107, 108, 109, 110, 111, 112, 113, 114, 115, 116, 117, 118, 119, 120, 121, 122, 123, 124, 125, 126, 127, 128, 129, 130, 131, 132, 133, 134, 135, 136, 137, 138, 139, 140, 141, 142, 143, 144, 145, 146, 147, 148, 149, 150, 151, 152, 153, 154, 155, 156, 157, 158, 159, 160, 161, 162, 163, 164, 165, 166, 167, 168, 169, 170, 171, 172, 173, 174, 175, 176, 177, 178, 179, 180, 181, 182, 183, 184, 185, 186, 187, 188, 189, 190, 191, 192, 193, 194, 195, 196, 197, 198, 199, 200, 201, 202, 203, 204, 205, 206, 207, 208, 209, 210, 211, 212, 213, 214, 215, 216, 217, 218, 219, 220, 221, 222, 223, 224, 225, 226, 227, 228, 229, 230, 231, 232, 233, 234, 235, 236, 237, 238, 239, 240, 241, 242, 243, 244, 245, 246, 247, 248, 249, 250, 251, 252, 253, 254, 255, 256, 257, 258, 259, 260, 261, 262, 263, 264, 265, 266, 267, 268, 269, 270, 271, 272, 273, 274, 275, 276, 277, 278, 279, 280, 281, 282, 283, 284, 285, 286, 287, 288, 289, 290, 291, 292, 293, 294, 295, 296, 297, 298, 299, 300],
      "AcquisitionTime": ["101145.235000", "101147.242500", "101149.252500", "101151.260000", "101153.267500", "101155.275000", "101157.282500", "101159.292500", "101201.300000", "101203.307500", "101205.315000", "101207.322500", "101209.332500", "101211.340000", "101213.347500", "101215.355000", "101217.362500", "101219.372500", "101221.380000", "101223.387500", "101225.395000", "101227.405000", "101229.412500", "101231.420000", "101233.427500", "101235.435000", "101237.445000", "101239.452500", "101241.460000", "101243.467500", "101245.475000", "101247.485000", "101249.492500", "101251.500000", "101253.507500", "101255.517500", "101257.525000", "101259.532500", "101301.540000", "101303.547500", "101305.557500", "101307.565000", "101309.572500", "101311.580000", "101313.587500", "101315.597500", "101317.605000", "101319.612500", "101321.620000", "101323.630000", "101325.637500", "101327.645000", "101329.652500", "101331.660000", "101333.670000", "101335.677500", "101337.685000", "101339.692500", "101341.700000", "101343.710000", "101345.717500", "101347.725000", "101349.732500", "101351.740000", "101353.750000", "101355.757500", "101357.765000", "101359.772500", "101401.782500", "101403.790000", "101405.797500", "101407.805000", "101409.812500", "101411.822500", "101413.830000", "101415.837500", "101417.845000", "101419.852500", "101421.862500", "101423.870000", "101425.877500", "101427.885000", "101429.895000", "101431.902500", "101433.910000", "101435.917500", "101437.925000", "101439.935000", "101441.942500", "101443.950000", "101445.957500", "101447.965000", "101449.975000", "101451.982500", "101453.990000", "101455.997500", "101458.007500", "101500.015000", "101502.022500", "101504.030000", "101506.037500", "101508.047500", "101510.055000", "101512.062500", "101514.070000", "101516.077500", "101518.087500", "101520.095000", "101522.102500", "101524.110000", "101526.120000", "101528.127500", "101530.135000", "101532.142500", "101534.150000", "101536.160000", "101538.167500", "101540.175000", "101542.182500", "101544.190000", "101546.200000", "101548.207500", "101550.215000", "101552.222500", "101554.230000", "101556.240000", "101558.247500", "101600.255000", "101602.262500", "101604.272500", "101606.280000", "101608.287500", "101610.295000", "101612.302500", "101614.312500", "101616.320000", "101618.327500", "101620.335000", "101622.342500", "101624.352500", "101626.360000", "101628.367500", "101630.375000", "101632.385000", "101634.392500", "101636.400000", "101638.407500", "101640.415000", "101642.425000", "101644.432500", "101646.440000", "101648.447500", "101650.455000", "101652.465000", "101654.472500", "101656.480000", "101658.487500", "101700.497500", "101702.505000", "101704.512500", "101706.520000", "101708.527500", "101710.537500", "101712.545000", "101714.552500", "101716.560000", "101718.567500", "101720.577500", "101722.585000", "101724.592500", "101726.600000", "101728.607500", "101730.617500", "101732.625000", "101734.632500", "101736.640000", "101738.650000", "101740.657500", "101742.665000", "101744.672500", "101746.680000", "101748.690000", "101750.697500", "101752.705000", "101754.712500", "101756.720000", "101758.730000", "101800.737500", "101802.745000", "101804.752500", "101806.762500", "101808.770000", "101810.777500", "101812.785000", "101814.792500", "101816.802500", "101818.810000", "101820.817500", "101822.825000", "101824.832500", "101826.842500", "101828.850000", "101830.857500", "101832.865000", "101834.875000", "101836.882500", "101838.890000", "101840.897500", "101842.905000", "101844.915000", "101846.922500", "101848.930000", "101850.937500", "101852.945000", "101854.955000", "101856.962500", "101858.970000", "101900.977500", "101902.985000", "101904.995000", "101907.002500", "101909.010000", "101911.017500", "101913.027500", "101915.035000", "101917.042500", "101919.050000", "101921.057500", "101923.067500", "101925.075000", "101927.082500", "101929.090000", "101931.097500", "101933.107500", "101935.115000", "101937.122500", "101939.130000", "101941.140000", "101943.147500", "101945.155000", "101947.162500", "101949.170000", "101951.180000", "101953.187500", "101955.195000", "101957.202500", "101959.210000", "102001.220000", "102003.227500", "102005.235000", "102007.242500", "102009.252500", "102011.260000", "102013.267500", "102015.275000", "102017.282500", "102019.292500", "102021.300000", "102023.307500", "102025.315000", "102027.322500", "102029.332500", "102031.340000", "102033.347500", "102035.355000", "102037.362500", "102039.372500", "102041.380000", "102043.387500", "102045.395000", "102047.405000", "102049.412500", "102051.420000", "102053.427500", "102055.435000", "102057.445000", "102059.452500", "102101.460000", "102103.467500", "102105.475000", "102107.485000", "102109.492500", "102111.500000", "102113.507500", "102115.517500", "102117.525000", "102119.532500", "102121.540000", "102123.547500", "102125.557500", "102127.565000", "102129.572500", "102131.580000", "102133.587500", "102135.597500", "102137.605000", "102139.612500", "102141.620000", "102143.630000", "102145.637500"],
      "ContentTime": ["101228.084000", "101228.086000", "101228.089000", "101228.091000", "101228.094000", "101228.094000", "101228.096000", "101228.099000", "101228.101000", "101228.101000", "101228.104000", "101228.106000", "101228.109000", "101228.109000", "101228.116000", "101228.124000", "101228.126000", "101228.126000", "101228.129000", "101228.131000", "101228.134000", "101308.077000", "101308.079000", "101308.082000", "101308.084000", "101308.087000", "101308.087000", "101308.089000", "101308.092000", "101308.094000", "101308.094000", "101308.097000", "101308.099000", "101308.102000", "101308.102000", "101308.104000", "101308.107000", "101308.109000", "101308.109000", "101308.112000", "101308.114000", "101348.077000", "101348.080000", "101348.082000", "101348.085000", "101348.087000", "101348.087000", "101348.090000", "101348.092000", "101348.095000", "101348.095000", "101348.097000", "101348.100000", "101348.102000", "101348.102000", "101348.105000", "101348.120000", "101348.122000", "101348.122000", "101348.125000", "101348.127000", "101428.078000", "101428.080000", "101428.083000", "101428.085000", "101428.088000", "101428.088000", "101428.090000", "101428.093000", "101428.095000", "101428.095000", "101428.098000", "101428.100000", "101428.103000", "101428.105000", "101428.105000", "101428.108000", "101428.110000", "101428.113000", "101428.113000", "101428.115000", "101508.078000", "101508.081000", "101508.083000", "101508.086000", "101508.088000", "101508.088000", "101508.121000", "101508.123000", "101508.126000", "101508.128000", "101508.128000", "101508.131000", "101508.133000", "101508.136000", "101508.136000", "101508.138000", "101508.141000", "101508.143000", "101508.143000", "101508.146000", "101548.077000", "101548.079000", "101548.082000", "101548.084000", "101548.087000", "101548.087000", "101548.089000", "101548.092000", "101548.094000", "101548.094000", "101548.097000", "101548.099000", "101548.102000", "101548.102000", "101548.104000", "101548.107000", "101548.109000", "101548.112000", "101548.112000", "101548.114000", "101628.077000", "101628.080000", "101628.082000", "101628.085000", "101628.087000", "101628.087000", "101628.090000", "101628.092000", "101628.095000", "101628.095000", "101628.097000", "101628.100000", "101628.102000", "101628.102000", "101628.105000", "101628.107000", "101628.110000", "101628.110000", "101628.112000", "101628.115000", "101708.078000", "101708.080000", "101708.083000", "101708.085000", "101708.088000", "101708.088000", "101708.090000", "101708.093000", "101708.095000", "101708.095000", "101708.098000", "101708.100000", "101708.103000", "101708.103000", "101708.105000", "101708.108000", "101708.110000", "101708.110000", "101708.113000", "101708.115000", "101748.078000", "101748.081000", "101748.083000", "101748.086000", "101748.088000", "101748.088000", "101748.091000", "101748.093000", "101748.096000", "101748.103000", "101748.106000", "101748.108000", "101748.111000", "101748.111000", "101748.113000", "101748.116000", "101748.118000", "101748.118000", "101748.121000", "101748.123000", "101828.077000", "101828.079000", "101828.082000", "101828.084000", "101828.087000", "101828.087000", "101828.089000", "101828.092000", "101828.094000", "101828.094000", "101828.097000", "101828.099000", "101828.102000", "101828.102000", "101828.104000", "101828.107000", "101828.109000", "101828.109000", "101828.112000", "101828.114000", "101908.077000", "101908.080000", "101908.082000", "101908.085000", "101908.087000", "101908.087000", "101908.090000", "101908.092000", "101908.095000", "101908.095000", "101908.097000", "101908.100000", "101908.102000", "101908.102000", "101908.105000", "101908.107000", "101908.110000", "101908.110000", "101908.112000", "101908.115000", "101928.077000", "101928.080000", "101928.082000", "101928.085000", "101928.087000", "101928.087000", "101928.090000", "101928.092000", "101928.095000", "101928.095000", "102008.078000", "102008.081000", "102008.083000", "102008.086000", "102008.088000", "102008.088000", "102008.091000", "102008.093000", "102008.096000", "102008.096000", "102008.098000", "102008.101000", "102008.103000", "102008.103000", "102008.106000", "102008.108000", "102008.111000", "102008.113000", "102008.113000", "102008.116000", "102048.076000", "102048.079000", "102048.081000", "102048.084000", "102048.086000", "102048.086000", "102048.089000", "102048.091000", "102048.094000", "102048.094000", "102048.096000", "102048.099000", "102048.101000", "102048.101000", "102048.104000", "102048.106000", "102048.109000", "102048.111000", "102048.111000", "102048.114000", "102128.077000", "102128.079000", "102128.082000", "102128.084000", "102128.087000", "102128.087000", "102128.089000", "102128.092000", "102128.094000", "102128.094000", "102128.097000", "102128.099000", "102128.102000", "102128.102000", "102128.104000", "102128.107000", "102128.109000", "102128.112000", "102128.112000", "102128.114000", "102144.762000", "102144.765000", "102144.767000", "102144.770000", "102144.772000", "102144.772000", "102144.775000", "102144.777000", "102144.780000"],
      "InstanceCreationTime": ["101228.084000", "101228.086000", "101228.089000", "101228.091000", "101228.094000", "101228.094000", "101228.096000", "101228.099000", "101228.101000", "101228.101000", "101228.104000", "101228.106000", "101228.109000", "101228.109000", "101228.116000", "101228.124000", "101228.126000", "101228.126000", "101228.129000", "101228.131000", "101228.134000", "101308.077000", "101308.079000", "101308.082000", "101308.084000", "101308.087000", "101308.087000", "101308.089000", "101308.092000", "101308.094000", "101308.094000", "101308.097000", "101308.099000", "101308.102000", "101308.102000", "101308.104000", "101308.107000", "101308.109000", "101308.109000", "101308.112000", "101308.114000", "101348.077000", "101348.080000", "101348.082000", "101348.085000", "101348.087000", "101348.087000", "101348.090000", "101348.092000", "101348.095000", "101348.095000", "101348.097000", "101348.100000", "101348.102000", "101348.102000", "101348.105000", "101348.120000", "101348.122000", "101348.122000", "101348.125000", "101348.127000", "101428.078000", "101428.080000", "101428.083000", "101428.085000", "101428.088000", "101428.088000", "101428.090000", "101428.093000", "101428.095000", "101428.095000", "101428.098000", "101428.100000", "101428.103000", "101428.105000", "101428.105000", "101428.108000", "101428.110000", "101428.113000", "101428.113000", "101428.115000", "101508.078000", "101508.081000", "101508.083000", "101508.086000", "101508.088000", "101508.088000", "101508.121000", "101508.123000", "101508.126000", "101508.128000", "101508.128000", "101508.131000", "101508.133000", "101508.136000", "101508.136000", "101508.138000", "101508.141000", "101508.143000", "101508.143000", "101508.146000", "101548.077000", "101548.079000", "101548.082000", "101548.084000", "101548.087000", "101548.087000", "101548.089000", "101548.092000", "101548.094000", "101548.094000", "101548.097000", "101548.099000", "101548.102000", "101548.102000", "101548.104000", "101548.107000", "101548.109000", "101548.112000", "101548.112000", "101548.114000", "101628.077000", "101628.080000", "101628.082000", "101628.085000", "101628.087000", "101628.087000", "101628.090000", "101628.092000", "101628.095000", "101628.095000", "101628.097000", "101628.100000", "101628.102000", "101628.102000", "101628.105000", "101628.107000", "101628.110000", "101628.110000", "101628.112000", "101628.115000", "101708.078000", "101708.080000", "101708.083000", "101708.085000", "101708.088000", "101708.088000", "101708.090000", "101708.093000", "101708.095000", "101708.095000", "101708.098000", "101708.100000", "101708.103000", "101708.103000", "101708.105000", "101708.108000", "101708.110000", "101708.110000", "101708.113000", "101708.115000", "101748.078000", "101748.081000", "101748.083000", "101748.086000", "101748.088000", "101748.088000", "101748.091000", "101748.093000", "101748.096000", "101748.103000", "101748.106000", "101748.108000", "101748.111000", "101748.111000", "101748.113000", "101748.116000", "101748.118000", "101748.118000", "101748.121000", "101748.123000", "101828.077000", "101828.079000", "101828.082000", "101828.084000", "101828.087000", "101828.087000", "101828.089000", "101828.092000", "101828.094000", "101828.094000", "101828.097000", "101828.099000", "101828.102000", "101828.102000", "101828.104000", "101828.107000", "101828.109000", "101828.109000", "101828.112000", "101828.114000", "101908.077000", "101908.080000", "101908.082000", "101908.085000", "101908.087000", "101908.087000", "101908.090000", "101908.092000", "101908.095000", "101908.095000", "101908.097000", "101908.100000", "101908.102000", "101908.102000", "101908.105000", "101908.107000", "101908.110000", "101908.110000", "101908.112000", "101908.115000", "101928.077000", "101928.080000", "101928.082000", "101928.085000", "101928.087000", "101928.087000", "101928.090000", "101928.092000", "101928.095000", "101928.095000", "102008.078000", "102008.081000", "102008.083000", "102008.086000", "102008.088000", "102008.088000", "102008.091000", "102008.093000", "102008.096000", "102008.096000", "102008.098000", "102008.101000", "102008.103000", "102008.103000", "102008.106000", "102008.108000", "102008.111000", "102008.113000", "102008.113000", "102008.116000", "102048.076000", "102048.079000", "102048.081000", "102048.084000", "102048.086000", "102048.086000", "102048.089000", "102048.091000", "102048.094000", "102048.094000", "102048.096000", "102048.099000", "102048.101000", "102048.101000", "102048.104000", "102048.106000", "102048.109000", "102048.111000", "102048.111000", "102048.114000", "102128.077000", "102128.079000", "102128.082000", "102128.084000", "102128.087000", "102128.087000", "102128.089000", "102128.092000", "102128.094000", "102128.094000", "102128.097000", "102128.099000", "102128.102000", "102128.102000", "102128.104000", "102128.107000", "102128.109000", "102128.112000", "102128.112000", "102128.114000", "102144.762000", "102144.765000", "102144.767000", "102144.770000", "102144.772000", "102144.772000", "102144.775000", "102144.777000", "102144.780000"],
      "InstanceNumber": [1, 2, 3, 4, 5, 6, 7, 8, 9, 10, 11, 12, 13, 14, 15, 16, 17, 18, 19, 20, 21, 22, 23, 24, 25, 26, 27, 28, 29, 30, 31, 32, 33, 34, 35, 36, 37, 38, 39, 40, 41, 42, 43, 44, 45, 46, 47, 48, 49, 50, 51, 52, 53, 54, 55, 56, 57, 58, 59, 60, 61, 62, 63, 64, 65, 66, 67, 68, 69, 70, 71, 72, 73, 74, 75, 76, 77, 78, 79, 80, 81, 82, 83, 84, 85, 86, 87, 88, 89, 90, 91, 92, 93, 94, 95, 96, 97, 98, 99, 100, 101, 102, 103, 104, 105, 106, 107, 108, 109, 110, 111, 112, 113, 114, 115, 116, 117, 118, 119, 120, 121, 122, 123, 124, 125, 126, 127, 128, 129, 130, 131, 132, 133, 134, 135, 136, 137, 138, 139, 140, 141, 142, 143, 144, 145, 146, 147, 148, 149, 150, 151, 152, 153, 154, 155, 156, 157, 158, 159, 160, 161, 162, 163, 164, 165, 166, 167, 168, 169, 170, 171, 172, 173, 174, 175, 176, 177, 178, 179, 180, 181, 182, 183, 184, 185, 186, 187, 188, 189, 190, 191, 192, 193, 194, 195, 196, 197, 198, 199, 200, 201, 202, 203, 204, 205, 206, 207, 208, 209, 210, 211, 212, 213, 214, 215, 216, 217, 218, 219, 220, 221, 222, 223, 224, 225, 226, 227, 228, 229, 230, 231, 232, 233, 234, 235, 236, 237, 238, 239, 240, 241, 242, 243, 244, 245, 246, 247, 248, 249, 250, 251, 252, 253, 254, 255, 256, 257, 258, 259, 260, 261, 262, 263, 264, 265, 266, 267, 268, 269, 270, 271, 272, 273, 274, 275, 276, 277, 278, 279, 280, 281, 282, 283, 284, 285, 286, 287, 288, 289, 290, 291, 292, 293, 294, 295, 296, 297, 298, 299, 300],
      "LargestImagePixelValue": [1959, 1761, 2094, 1614, 1502, 2028, 1434, 1516, 1428, 1548, 1578, 1604, 1657, 1573, 1908, 1442, 1473, 1534, 1605, 1779, 1472, 1606, 1486, 1617, 1597, 1624, 1588, 1727, 1503, 1638, 1580, 1517, 1537, 1588, 1994, 1493, 1672, 1443, 1552, 1574, 1675, 1446, 1478, 1577, 1616, 1660, 1452, 1536, 1573, 1619, 1721, 1458, 1892, 1585, 1854, 1607, 1724, 1480, 1468, 1526, 1577, 1605, 1614, 1619, 1521, 1418, 1506, 1659, 1910, 1628, 1686, 1518, 1484, 1508, 2107, 2117, 1477, 1917, 1419, 1559, 1602, 1593, 1656, 1728, 1428, 1497, 1593, 1612, 1631, 1488, 1681, 1591, 1902, 1596, 1652, 1441, 1655, 1765, 1845, 1843, 1560, 1558, 1598, 1842, 1434, 1515, 1746, 2290, 1530, 1426, 1510, 1703, 1672, 1976, 1799, 1556, 1536, 1615, 1591, 1642, 1468, 1510, 1540, 1585, 1647, 1630, 1504, 1542, 1552, 1602, 1922, 1442, 1642, 1796, 1728, 2069, 1499, 1801, 2006, 1885, 1922, 1711, 1612, 1598, 1747, 1562, 1765, 1523, 1512, 1440, 1549, 1792, 1599, 1785, 1397, 1638, 1576, 1572, 1840, 1425, 1727, 1650, 1909, 1434, 1747, 2216, 1483, 1992, 1552, 1757, 1942, 1500, 1608, 1423, 1646, 1704, 1749, 1481, 1490, 1665, 1780, 1632, 1606, 1469, 1813, 1824, 1822, 1532, 1545, 1600, 1678, 1936, 1581, 1756, 1488, 1634, 1870, 1803, 1378, 1686, 1762, 1688, 1817, 1684, 1886, 1519, 1550, 1464, 1624, 1695, 1767, 1727, 1646, 1916, 1564, 1814, 1690, 1779, 1735, 1620, 1630, 1523, 1594, 1578, 1796, 1418, 1732, 1703, 2373, 1637, 1383, 1493, 1689, 1868, 2209, 1575, 1836, 1608, 1553, 1542, 1604, 1604, 1421, 1574, 1599, 1768, 1589, 1573, 1556, 1876, 1574, 1560, 1579, 1503, 1727, 1635, 1864, 1597, 1658, 1530, 1902, 1977, 2190, 1461, 1809, 1521, 1784, 1558, 1662, 1645, 2150, 1448, 1603, 1656, 1622, 1666, 1679, 1953, 1415, 1706, 1667, 1675, 1797, 1547, 1491, 1568, 1704, 1623, 1817, 1461, 1625, 1569, 1623, 1772, 1656, 1422, 1782, 1686, 1784, 1734],
      "WindowCenter": [584.0, 579.0, 577.0, 571.0, 567.0, 571.0, 567.0, 568.0, 569.0, 570.0, 572.0, 572.0, 575.0, 572.0, 576.0, 574.0, 574.0, 576.0, 577.0, 579.0, 575.0, 577.0, 574.0, 574.0, 574.0, 575.0, 575.0, 577.0, 577.0, 579.0, 578.0, 579.0, 578.0, 578.0, 579.0, 574.0, 574.0, 571.0, 572.0, 574.0, 576.0, 575.0, 575.0, 577.0, 578.0, 579.0, 579.0, 579.0, 579.0, 579.0, 579.0, 578.0, 581.0, 577.0, 578.0, 575.0, 576.0, 574.0, 574.0, 576.0, 577.0, 576.0, 577.0, 577.0, 576.0, 578.0, 577.0, 577.0, 583.0, 578.0, 578.0, 577.0, 578.0, 577.0, 579.0, 578.0, 572.0, 575.0, 571.0, 575.0, 575.0, 576.0, 577.0, 578.0, 576.0, 578.0, 579.0, 580.0, 580.0, 579.0, 580.0, 580.0, 582.0, 579.0, 580.0, 578.0, 580.0, 579.0, 579.0, 578.0, 576.0, 576.0, 578.0, 580.0, 578.0, 579.0, 581.0, 588.0, 581.0, 578.0, 579.0, 580.0, 579.0, 578.0, 575.0, 572.0, 572.0, 575.0, 575.0, 578.0, 576.0, 578.0, 578.0, 579.0, 580.0, 580.0, 580.0, 580.0, 580.0, 581.0, 583.0, 580.0, 582.0, 583.0, 583.0, 585.0, 581.0, 583.0, 582.0, 581.0, 580.0, 578.0, 577.0, 577.0, 579.0, 577.0, 580.0, 577.0, 579.0, 578.0, 580.0, 582.0, 580.0, 582.0, 578.0, 581.0, 580.0, 581.0, 583.0, 580.0, 583.0, 583.0, 584.0, 580.0, 583.0, 585.0, 580.0, 581.0, 578.0, 579.0, 580.0, 578.0, 580.0, 578.0, 581.0, 581.0, 582.0, 581.0, 581.0, 582.0, 583.0, 582.0, 581.0, 580.0, 583.0, 582.0, 581.0, 579.0, 580.0, 581.0, 581.0, 584.0, 580.0, 581.0, 579.0, 581.0, 584.0, 583.0, 580.0, 583.0, 583.0, 582.0, 582.0, 581.0, 581.0, 579.0, 580.0, 581.0, 582.0, 584.0, 584.0, 584.0, 583.0, 584.0, 581.0, 583.0, 581.0, 582.0, 581.0, 581.0, 581.0, 580.0, 582.0, 582.0, 584.0, 581.0, 583.0, 583.0, 589.0, 584.0, 581.0, 582.0, 584.0, 584.0, 583.0, 578.0, 579.0, 577.0, 578.0, 578.0, 581.0, 583.0, 582.0, 584.0, 585.0, 585.0, 584.0, 584.0, 583.0, 584.0, 581.0, 582.0, 583.0, 582.0, 586.0, 587.0, 587.0, 585.0, 586.0, 586.0, 587.0, 585.0, 585.0, 579.0, 581.0, 579.0, 581.0, 579.0, 581.0, 581.0, 587.0, 582.0, 585.0, 585.0, 583.0, 583.0, 583.0, 585.0, 581.0, 583.0, 583.0, 583.0, 584.0, 582.0, 583.0, 583.0, 585.0, 584.0, 585.0, 582.0, 584.0, 583.0, 584.0, 585.0, 585.0, 583.0, 586.0, 584.0, 585.0, 584.0],
      "WindowWidth": [1236.0, 1222.0, 1217.0, 1204.0, 1197.0, 1204.0, 1196.0, 1200.0, 1200.0, 1204.0, 1208.0, 1208.0, 1213.0, 1207.0, 1215.0, 1212.0, 1213.0, 1216.0, 1218.0, 1221.0, 1215.0, 1217.0, 1211.0, 1213.0, 1211.0, 1213.0, 1213.0, 1219.0, 1219.0, 1222.0, 1221.0, 1222.0, 1221.0, 1221.0, 1221.0, 1211.0, 1211.0, 1206.0, 1208.0, 1211.0, 1216.0, 1213.0, 1215.0, 1218.0, 1220.0, 1222.0, 1223.0, 1223.0, 1223.0, 1223.0, 1223.0, 1221.0, 1225.0, 1218.0, 1221.0, 1214.0, 1216.0, 1212.0, 1212.0, 1215.0, 1218.0, 1217.0, 1218.0, 1218.0, 1216.0, 1222.0, 1218.0, 1218.0, 1233.0, 1220.0, 1221.0, 1217.0, 1220.0, 1219.0, 1222.0, 1220.0, 1208.0, 1213.0, 1207.0, 1215.0, 1214.0, 1216.0, 1218.0, 1220.0, 1217.0, 1221.0, 1223.0, 1225.0, 1225.0, 1223.0, 1225.0, 1225.0, 1229.0, 1223.0, 1225.0, 1221.0, 1224.0, 1222.0, 1222.0, 1220.0, 1217.0, 1217.0, 1221.0, 1226.0, 1221.0, 1224.0, 1227.0, 1243.0, 1227.0, 1221.0, 1222.0, 1226.0, 1222.0, 1221.0, 1214.0, 1208.0, 1208.0, 1214.0, 1215.0, 1220.0, 1217.0, 1220.0, 1220.0, 1223.0, 1224.0, 1226.0, 1224.0, 1224.0, 1226.0, 1228.0, 1231.0, 1226.0, 1229.0, 1232.0, 1232.0, 1236.0, 1227.0, 1231.0, 1229.0, 1227.0, 1225.0, 1220.0, 1218.0, 1217.0, 1223.0, 1219.0, 1224.0, 1219.0, 1222.0, 1222.0, 1226.0, 1229.0, 1226.0, 1228.0, 1221.0, 1227.0, 1225.0, 1227.0, 1231.0, 1226.0, 1232.0, 1231.0, 1232.0, 1226.0, 1232.0, 1234.0, 1225.0, 1227.0, 1220.0, 1222.0, 1225.0, 1220.0, 1224.0, 1220.0, 1226.0, 1227.0, 1230.0, 1229.0, 1227.0, 1230.0, 1231.0, 1229.0, 1228.0, 1226.0, 1232.0, 1230.0, 1228.0, 1224.0, 1224.0, 1227.0, 1227.0, 1233.0, 1226.0, 1228.0, 1224.0, 1228.0, 1232.0, 1232.0, 1227.0, 1232.0, 1232.0, 1230.0, 1229.0, 1228.0, 1227.0, 1224.0, 1226.0, 1228.0, 1231.0, 1233.0, 1234.0, 1234.0, 1232.0, 1233.0, 1228.0, 1231.0, 1228.0, 1229.0, 1228.0, 1226.0, 1228.0, 1226.0, 1229.0, 1229.0, 1234.0, 1228.0, 1231.0, 1231.0, 1246.0, 1233.0, 1227.0, 1230.0, 1233.0, 1234.0, 1232.0, 1221.0, 1222.0, 1218.0, 1220.0, 1222.0, 1228.0, 1231.0, 1231.0, 1235.0, 1236.0, 1236.0, 1234.0, 1234.0, 1231.0, 1235.0, 1228.0, 1230.0, 1232.0, 1231.0, 1238.0, 1242.0, 1241.0, 1236.0, 1237.0, 1238.0, 1240.0, 1236.0, 1235.0, 1224.0, 1227.0, 1222.0, 1227.0, 1224.0, 1228.0, 1229.0, 1240.0, 1231.0, 1236.0, 1236.0, 1232.0, 1233.0, 1232.0, 1236.0, 1228.0, 1232.0, 1232.0, 1232.0, 1233.0, 1230.0, 1231.0, 1231.0, 1237.0, 1234.0, 1236.0, 1230.0, 1235.0, 1232.0, 1234.0, 1236.0, 1236.0, 1233.0, 1237.0, 1233.0, 1236.0, 1233.0]
    },
    "slices": {}
  }
}