{
  "AcquisitionMatrixPE": 74,
  "AcquisitionNumber": 1,
  "AcquisitionTime": "14:50:3.812500",
  "BandwidthPerPixelPhaseEncode": 27.579,
  "BaseResolution": 74,
  "BodyPartExamined": "HEAD",
  "CoilString": "t:HEA;HEP",
  "ConversionSoftware": "dcm2niix",
  "ConversionSoftwareVersion": "v1.0.20190410  GCC6.3.0",
  "DerivedVendorReportedEchoSpacing": 0.000489993,
  "DeviceSerialNumber": "35256",
  "DwellTime": 2.4e-06,
  "EchoTime": 0.03,
  "EffectiveEchoSpacing": 0.000489993,
  "FlipAngle": 70,
  "ImageOrientationPatientDICOM": [1, 0, 0, 0, 1, 0],
  "ImageType": [
    "ORIGINAL",
    "PRIMARY",
    "M",
    "ND",
    "NORM",
    "MOSAIC"
],
  "ImagingFrequency": 123.223,
  "InPlanePhaseEncodingDirectionDICOM": "COL",
  "InstitutionAddress": "East_Lee_St._2907_Greensboro_NC_US_27401",
  "InstitutionName": "JSNN",
  "InstitutionalDepartmentName": "Department",
  "MRAcquisitionType": "2D",
  "MagneticFieldStrength": 3,
  "Manufacturer": "Siemens",
  "ManufacturersModelName": "TrioTim",
  "Modality": "MR",
  "PartialFourier": 1,
  "PatientPosition": "HFS",
  "PercentPhaseFOV": 100,
  "PhaseEncodingDirection": "j-",
  "PhaseEncodingSteps": 74,
  "PhaseResolution": 1,
  "PixelBandwidth": 2815,
  "ProcedureStepDescription": "head_Cassidy",
  "ProtocolName": "RestingState",
  "PulseSequenceDetails": "%SiemensSeq%_ep2d_bold",
  "ReceiveCoilName": "HeadMatrix",
  "ReconMatrixPE": 74,
  "RepetitionTime": 2,
  "SAR": 0.102151,
  "ScanOptions": "FS",
  "ScanningSequence": "EP",
  "SequenceName": "_epfid2d1_74",
  "SequenceVariant": "SK",
  "SeriesDescription": "RestingState",
  "SeriesNumber": 3,
  "ShimSetting": [1430, 10694, -9118, 559, 97, -63, 136, -191],
  "SliceThickness": 4,
  "SliceTiming": [1.945, 1.8825, 1.82, 1.755, 1.6925, 1.63, 1.5675, 1.505, 1.4425, 1.38, 1.3175, 1.255, 1.1925, 1.13, 1.065, 1.0025, 0.94, 0.8775, 0.815, 0.7525, 0.69, 0.6275, 0.565, 0.5025, 0.44, 0.375, 0.3125, 0.25, 0.1875, 0.125, 0.0625, 0],
  "SoftwareVersions": "syngo_MR_B19",
  "SpacingBetweenSlices": 4,
  "StationName": "JSNNMRI",
  "TaskName": "rest",
  "TotalReadoutTime": 0.0357695,
  "TxRefAmp": 251.32,
  "dcmmeta_affine": [
    [-2.972972869873047, 0.0, 0.0, 105.18071746826172],
    [0.0, 2.972972869873047, 0.0, -92.65641784667969],
    [0.0, 0.0, 4.0, -71.97817993164062],
    [0.0, 0.0, 0.0, 1.0]
],
  "dcmmeta_reorient_transform": [
    [0.0, -1.0, 0.0, 73.0],
    [1.0, 0.0, 0.0, 0.0],
    [0.0, 0.0, 1.0, 0.0],
    [0.0, 0.0, 0.0, 1.0]
],
  "dcmmeta_shape": [74, 74, 32, 300],
  "dcmmeta_slice_dim": 2,
  "dcmmeta_version": 0.6,
  "global": {
    "const": {
      "AcquisitionMatrix": [74, 0, 0, 74],
      "AngioFlag": "N",
      "BitsAllocated": 16,
      "BitsStored": 12,
      "BodyPartExamined": "HEAD",
      "Columns": 444,
      "EchoNumbers": 1,
      "EchoTime": 30.0,
      "EchoTrainLength": 1,
      "FlipAngle": 70.0,
      "HighBit": 11,
      "ImageOrientationPatient": [1.0, 0.0, 0.0, 0.0, 1.0, 0.0],
      "ImagePositionPatient": [-655.18069982529, -674.37058258057, -71.978179931641],
      "ImageType": [
        "ORIGINAL",
        "PRIMARY",
        "M",
        "ND",
        "NORM",
        "MOSAIC"
],
      "ImagedNucleus": "1H",
      "ImagingFrequency": 123.223312,
      "InPlanePhaseEncodingDirection": "COL",
      "MRAcquisitionType": "2D",
      "MagneticFieldStrength": 3.0,
      "Manufacturer": "SIEMENS",
      "ManufacturerModelName": "TrioTim",
      "Modality": "MR",
      "NumberOfAverages": 1.0,
      "NumberOfPhaseEncodingSteps": 74,
      "PercentPhaseFieldOfView": 100.0,
      "PercentSampling": 100.0,
      "PerformedProcedureStepStartTime": "142140.765000",
      "PhotometricInterpretation": "MONOCHROME2",
      "PixelBandwidth": 2815.0,
      "PixelRepresentation": 0,
      "PixelSpacing": [2.972972869873, 2.972972869873],
      "ProtocolName": "RestingState",
      "RepetitionTime": 2000.0,
      "Rows": 444,
      "SAR": 0.10215125256264,
      "SamplesPerPixel": 1,
      "ScanOptions": "FS",
      "ScanningSequence": "EP",
      "SequenceName": "*epfid2d1_74",
      "SequenceVariant": "SK",
      "SeriesDescription": "RestingState",
      "SeriesNumber": 3,
      "SeriesTime": "145034.015000",
      "SliceLocation": -71.978179931641,
      "SliceThickness": 4.0,
      "SmallestImagePixelValue": 0,
      "SoftwareVersions": "syngo MR B19",
      "SpacingBetweenSlices": 4.0,
      "SpecificCharacterSet": "ISO_IR 100",
      "StudyID": "1",
      "StudyTime": "142140.671000",
      "TransmitCoilName": "Body",
      "VariableFlipAngleFlag": "N",
      "WindowCenterWidthExplanation": "Algo1",
      "dBdt": 0.0},
    "slices": {}
  },
  "time": {
    "samples": {
      "AcquisitionNumber": [1, 2, 3, 4, 5, 6, 7, 8, 9, 10, 11, 12, 13, 14, 15, 16, 17, 18, 19, 20, 21, 22, 23, 24, 25, 26, 27, 28, 29, 30, 31, 32, 33, 34, 35, 36, 37, 38, 39, 40, 41, 42, 43, 44, 45, 46, 47, 48, 49, 50, 51, 52, 53, 54, 55, 56, 57, 58, 59, 60, 61, 62, 63, 64, 65, 66, 67, 68, 69, 70, 71, 72, 73, 74, 75, 76, 77, 78, 79, 80, 81, 82, 83, 84, 85, 86, 87, 88, 89, 90, 91, 92, 93, 94, 95, 96, 97, 98, 99, 100, 101, 102, 103, 104, 105, 106, 107, 108, 109, 110, 111, 112, 113, 114, 115, 116, 117, 118, 119, 120, 121, 122, 123, 124, 125, 126, 127, 128, 129, 130, 131, 132, 133, 134, 135, 136, 137, 138, 139, 140, 141, 142, 143, 144, 145, 146, 147, 148, 149, 150, 151, 152, 153, 154, 155, 156, 157, 158, 159, 160, 161, 162, 163, 164, 165, 166, 167, 168, 169, 170, 171, 172, 173, 174, 175, 176, 177, 178, 179, 180, 181, 182, 183, 184, 185, 186, 187, 188, 189, 190, 191, 192, 193, 194, 195, 196, 197, 198, 199, 200, 201, 202, 203, 204, 205, 206, 207, 208, 209, 210, 211, 212, 213, 214, 215, 216, 217, 218, 219, 220, 221, 222, 223, 224, 225, 226, 227, 228, 229, 230, 231, 232, 233, 234, 235, 236, 237, 238, 239, 240, 241, 242, 243, 244, 245, 246, 247, 248, 249, 250, 251, 252, 253, 254, 255, 256, 257, 258, 259, 260, 261, 262, 263, 264, 265, 266, 267, 268, 269, 270, 271, 272, 273, 274, 275, 276, 277, 278, 279, 280, 281, 282, 283, 284, 285, 286, 287, 288, 289, 290, 291, 292, 293, 294, 295, 296, 297, 298, 299, 300],
      "AcquisitionTime": ["145003.812500", "145005.820000", "145007.827500", "145009.835000", "145011.845000", "145013.852500", "145015.860000", "145017.867500", "145019.875000", "145021.885000", "145023.892500", "145025.900000", "145027.907500", "145029.915000", "145031.925000", "145033.932500", "145035.940000", "145037.947500", "145039.957500", "145041.965000", "145043.972500", "145045.980000", "145047.987500", "145049.997500", "145052.005000", "145054.012500", "145056.020000", "145058.027500", "145100.037500", "145102.045000", "145104.052500", "145106.060000", "145108.070000", "145110.077500", "145112.085000", "145114.092500", "145116.100000", "145118.110000", "145120.117500", "145122.125000", "145124.132500", "145126.140000", "145128.150000", "145130.157500", "145132.165000", "145134.172500", "145136.182500", "145138.190000", "145140.197500", "145142.205000", "145144.212500", "145146.222500", "145148.230000", "145150.237500", "145152.245000", "145154.252500", "145156.262500", "145158.270000", "145200.277500", "145202.285000", "145204.292500", "145206.302500", "145208.310000", "145210.317500", "145212.325000", "145214.335000", "145216.342500", "145218.350000", "145220.357500", "145222.365000", "145224.375000", "145226.382500", "145228.390000", "145230.397500", "145232.405000", "145234.415000", "145236.422500", "145238.430000", "145240.437500", "145242.447500", "145244.455000", "145246.462500", "145248.470000", "145250.477500", "145252.487500", "145254.495000", "145256.502500", "145258.510000", "145300.517500", "145302.527500", "145304.535000", "145306.542500", "145308.550000", "145310.560000", "145312.567500", "145314.575000", "145316.582500", "145318.590000", "145320.600000", "145322.607500", "145324.615000", "145326.622500", "145328.630000", "145330.640000", "145332.647500", "145334.655000", "145336.662500", "145338.672500", "145340.680000", "145342.687500", "145344.695000", "145346.702500", "145348.712500", "145350.720000", "145352.727500", "145354.735000", "145356.742500", "145358.752500", "145400.760000", "145402.767500", "145404.775000", "145406.782500", "145408.792500", "145410.800000", "145412.807500", "145414.815000", "145416.825000", "145418.832500", "145420.840000", "145422.847500", "145424.855000", "145426.865000", "145428.872500", "145430.880000", "145432.887500", "145434.895000", "145436.905000", "145438.912500", "145440.920000", "145442.927500", "145444.937500", "145446.945000", "145448.952500", "145450.960000", "145452.967500", "145454.977500", "145456.985000", "145458.992500", "145501.000000", "145503.007500", "145505.017500", "145507.025000", "145509.032500", "145511.040000", "145513.050000", "145515.057500", "145517.065000", "145519.072500", "145521.080000", "145523.090000", "145525.097500", "145527.105000", "145529.112500", "145531.120000", "145533.130000", "145535.137500", "145537.145000", "145539.152500", "145541.160000", "145543.170000", "145545.177500", "145547.185000", "145549.192500", "145551.202500", "145553.210000", "145555.217500", "145557.225000", "145559.232500", "145601.242500", "145603.250000", "145605.257500", "145607.265000", "145609.272500", "145611.282500", "145613.290000", "145615.297500", "145617.305000", "145619.315000", "145621.322500", "145623.330000", "145625.337500", "145627.345000", "145629.355000", "145631.362500", "145633.370000", "145635.377500", "145637.385000", "145639.395000", "145641.402500", "145643.410000", "145645.417500", "145647.427500", "145649.435000", "145651.442500", "145653.450000", "145655.457500", "145657.467500", "145659.475000", "145701.482500", "145703.490000", "145705.497500", "145707.507500", "145709.515000", "145711.522500", "145713.530000", "145715.537500", "145717.547500", "145719.555000", "145721.562500", "145723.570000", "145725.580000", "145727.587500", "145729.595000", "145731.602500", "145733.610000", "145735.620000", "145737.627500", "145739.635000", "145741.642500", "145743.650000", "145745.660000", "145747.667500", "145749.675000", "145751.682500", "145753.692500", "145755.700000", "145757.707500", "145759.715000", "145801.722500", "145803.732500", "145805.740000", "145807.747500", "145809.755000", "145811.762500", "145813.772500", "145815.780000", "145817.787500", "145819.795000", "145821.805000", "145823.812500", "145825.820000", "145827.827500", "145829.835000", "145831.845000", "145833.852500", "145835.860000", "145837.867500", "145839.875000", "145841.885000", "145843.892500", "145845.900000", "145847.907500", "145849.915000", "145851.925000", "145853.932500", "145855.940000", "145857.947500", "145859.957500", "145901.965000", "145903.972500", "145905.980000", "145907.987500", "145909.997500", "145912.005000", "145914.012500", "145916.020000", "145918.027500", "145920.037500", "145922.045000", "145924.052500", "145926.060000", "145928.070000", "145930.077500", "145932.085000", "145934.092500", "145936.100000", "145938.110000", "145940.117500", "145942.125000", "145944.132500", "145946.140000", "145948.150000", "145950.157500", "145952.165000", "145954.172500", "145956.182500", "145958.190000", "150000.197500", "150002.205000", "150004.212500"],
      "ContentTime": ["145034.031000", "145034.031000", "145034.031000", "145034.031000", "145034.031000", "145034.031000", "145034.046000", "145034.046000", "145034.046000", "145034.062000", "145034.062000", "145034.062000", "145034.062000", "145034.062000", "145034.062000", "145114.000000", "145114.000000", "145114.000000", "145114.000000", "145114.000000", "145114.000000", "145114.015000", "145114.015000", "145114.015000", "145114.015000", "145114.031000", "145114.031000", "145114.031000", "145114.031000", "145114.031000", "145114.031000", "145114.046000", "145114.046000", "145114.046000", "145114.046000", "145154.000000", "145154.000000", "145154.000000", "145154.000000", "145154.015000", "145154.015000", "145154.015000", "145154.015000", "145154.015000", "145154.015000", "145154.015000", "145154.031000", "145154.031000", "145154.031000", "145154.031000", "145154.031000", "145154.031000", "145154.031000", "145154.031000", "145154.046000", "145234.000000", "145234.000000", "145234.000000", "145234.000000", "145234.000000", "145234.015000", "145234.015000", "145234.015000", "145234.015000", "145234.015000", "145234.015000", "145234.015000", "145234.031000", "145234.031000", "145234.031000", "145234.031000", "145234.031000", "145234.031000", "145234.031000", "145234.046000", "145314.000000", "145314.000000", "145314.000000", "145314.000000", "145314.000000", "145314.000000", "145314.015000", "145314.015000", "145314.015000", "145314.015000", "145314.015000", "145314.031000", "145314.031000", "145314.031000", "145314.031000", "145314.031000", "145314.031000", "145314.031000", "145314.046000", "145314.046000", "145354.000000", "145354.000000", "145354.000000", "145354.000000", "145354.000000", "145354.000000", "145354.000000", "145354.015000", "145354.015000", "145354.015000", "145354.015000", "145354.015000", "145354.015000", "145354.015000", "145354.031000", "145354.031000", "145354.031000", "145354.031000", "145354.031000", "145354.031000", "145434.000000", "145434.000000", "145434.000000", "145434.000000", "145434.000000", "145434.000000", "145434.015000", "145434.015000", "145434.015000", "145434.015000", "145434.031000", "145434.031000", "145434.031000", "145434.031000", "145434.031000", "145434.031000", "145434.031000", "145434.031000", "145434.046000", "145434.046000", "145514.000000", "145514.000000", "145514.000000", "145514.000000", "145514.000000", "145514.000000", "145514.015000", "145514.015000", "145514.015000", "145514.015000", "145514.015000", "145514.031000", "145514.031000", "145514.031000", "145514.031000", "145514.031000", "145514.031000", "145514.031000", "145514.046000", "145514.046000", "145554.000000", "145554.000000", "145554.000000", "145554.015000", "145554.015000", "145554.015000", "145554.015000", "145554.015000", "145554.015000", "145554.031000", "145554.031000", "145554.031000", "145554.031000", "145554.031000", "145554.046000", "145554.046000", "145554.046000", "145554.046000", "145554.046000", "145554.062000", "145634.000000", "145634.000000", "145634.000000", "145634.015000", "145634.015000", "145634.015000", "145634.015000", "145634.015000", "145634.031000", "145634.031000", "145634.031000", "145634.031000", "145634.031000", "145634.031000", "145634.046000", "145634.046000", "145634.046000", "145634.046000", "145634.062000", "145634.062000", "145714.000000", "145714.000000", "145714.000000", "145714.000000", "145714.015000", "145714.015000", "145714.015000", "145714.015000", "145714.015000", "145714.015000", "145714.015000", "145714.015000", "145714.031000", "145714.031000", "145714.031000", "145714.031000", "145714.031000", "145714.031000", "145714.031000", "145714.046000", "145754.000000", "145754.000000", "145754.000000", "145754.000000", "145754.000000", "145754.000000", "145754.015000", "145754.015000", "145754.015000", "145754.015000", "145754.031000", "145754.031000", "145754.031000", "145754.031000", "145754.031000", "145754.031000", "145754.031000", "145754.031000", "145754.046000", "145754.046000", "145834.000000", "145834.000000", "145834.000000", "145834.000000", "145834.000000", "145834.000000", "145834.015000", "145834.015000", "145834.015000", "145834.015000", "145834.015000", "145834.015000", "145834.015000", "145834.015000", "145834.031000", "145834.031000", "145834.031000", "145834.031000", "145834.031000", "145834.031000", "145914.000000", "145914.000000", "145914.000000", "145914.000000", "145914.000000", "145914.000000", "145914.015000", "145914.015000", "145914.015000", "145914.015000", "145914.015000", "145914.031000", "145914.031000", "145914.031000", "145914.031000", "145914.031000", "145914.031000", "145914.031000", "145914.046000", "145914.046000", "145954.000000", "145954.000000", "145954.000000", "145954.000000", "145954.000000", "145954.000000", "145954.015000", "145954.015000", "145954.015000", "145954.015000", "145954.015000", "145954.015000", "145954.015000", "145954.015000", "145954.031000", "145954.031000", "145954.031000", "145954.031000", "145954.031000", "145954.031000", "150003.671000", "150003.671000", "150003.671000", "150003.671000", "150003.671000"],
      "InstanceCreationTime": ["145034.031000", "145034.031000", "145034.031000", "145034.031000", "145034.031000", "145034.031000", "145034.046000", "145034.046000", "145034.046000", "145034.062000", "145034.062000", "145034.062000", "145034.062000", "145034.062000", "145034.062000", "145114.000000", "145114.000000", "145114.000000", "145114.000000", "145114.000000", "145114.000000", "145114.015000", "145114.015000", "145114.015000", "145114.015000", "145114.031000", "145114.031000", "145114.031000", "145114.031000", "145114.031000", "145114.031000", "145114.046000", "145114.046000", "145114.046000", "145114.046000", "145154.000000", "145154.000000", "145154.000000", "145154.000000", "145154.015000", "145154.015000", "145154.015000", "145154.015000", "145154.015000", "145154.015000", "145154.015000", "145154.031000", "145154.031000", "145154.031000", "145154.031000", "145154.031000", "145154.031000", "145154.031000", "145154.031000", "145154.046000", "145234.000000", "145234.000000", "145234.000000", "145234.000000", "145234.000000", "145234.015000", "145234.015000", "145234.015000", "145234.015000", "145234.015000", "145234.015000", "145234.015000", "145234.031000", "145234.031000", "145234.031000", "145234.031000", "145234.031000", "145234.031000", "145234.031000", "145234.046000", "145314.000000", "145314.000000", "145314.000000", "145314.000000", "145314.000000", "145314.000000", "145314.015000", "145314.015000", "145314.015000", "145314.015000", "145314.015000", "145314.031000", "145314.031000", "145314.031000", "145314.031000", "145314.031000", "145314.031000", "145314.031000", "145314.046000", "145314.046000", "145354.000000", "145354.000000", "145354.000000", "145354.000000", "145354.000000", "145354.000000", "145354.000000", "145354.015000", "145354.015000", "145354.015000", "145354.015000", "145354.015000", "145354.015000", "145354.015000", "145354.031000", "145354.031000", "145354.031000", "145354.031000", "145354.031000", "145354.031000", "145434.000000", "145434.000000", "145434.000000", "145434.000000", "145434.000000", "145434.000000", "145434.015000", "145434.015000", "145434.015000", "145434.015000", "145434.031000", "145434.031000", "145434.031000", "145434.031000", "145434.031000", "145434.031000", "145434.031000", "145434.031000", "145434.046000", "145434.046000", "145514.000000", "145514.000000", "145514.000000", "145514.000000", "145514.000000", "145514.000000", "145514.015000", "145514.015000", "145514.015000", "145514.015000", "145514.015000", "145514.031000", "145514.031000", "145514.031000", "145514.031000", "145514.031000", "145514.031000", "145514.031000", "145514.046000", "145514.046000", "145554.000000", "145554.000000", "145554.000000", "145554.015000", "145554.015000", "145554.015000", "145554.015000", "145554.015000", "145554.015000", "145554.031000", "145554.031000", "145554.031000", "145554.031000", "145554.031000", "145554.046000", "145554.046000", "145554.046000", "145554.046000", "145554.046000", "145554.062000", "145634.000000", "145634.000000", "145634.000000", "145634.015000", "145634.015000", "145634.015000", "145634.015000", "145634.015000", "145634.031000", "145634.031000", "145634.031000", "145634.031000", "145634.031000", "145634.031000", "145634.046000", "145634.046000", "145634.046000", "145634.046000", "145634.062000", "145634.062000", "145714.000000", "145714.000000", "145714.000000", "145714.000000", "145714.015000", "145714.015000", "145714.015000", "145714.015000", "145714.015000", "145714.015000", "145714.015000", "145714.015000", "145714.031000", "145714.031000", "145714.031000", "145714.031000", "145714.031000", "145714.031000", "145714.031000", "145714.046000", "145754.000000", "145754.000000", "145754.000000", "145754.000000", "145754.000000", "145754.000000", "145754.015000", "145754.015000", "145754.015000", "145754.015000", "145754.031000", "145754.031000", "145754.031000", "145754.031000", "145754.031000", "145754.031000", "145754.031000", "145754.031000", "145754.046000", "145754.046000", "145834.000000", "145834.000000", "145834.000000", "145834.000000", "145834.000000", "145834.000000", "145834.015000", "145834.015000", "145834.015000", "145834.015000", "145834.015000", "145834.015000", "145834.015000", "145834.015000", "145834.031000", "145834.031000", "145834.031000", "145834.031000", "145834.031000", "145834.031000", "145914.000000", "145914.000000", "145914.000000", "145914.000000", "145914.000000", "145914.000000", "145914.015000", "145914.015000", "145914.015000", "145914.015000", "145914.015000", "145914.031000", "145914.031000", "145914.031000", "145914.031000", "145914.031000", "145914.031000", "145914.031000", "145914.046000", "145914.046000", "145954.000000", "145954.000000", "145954.000000", "145954.000000", "145954.000000", "145954.000000", "145954.015000", "145954.015000", "145954.015000", "145954.015000", "145954.015000", "145954.015000", "145954.015000", "145954.015000", "145954.031000", "145954.031000", "145954.031000", "145954.031000", "145954.031000", "145954.031000", "150003.671000", "150003.671000", "150003.671000", "150003.671000", "150003.671000"],
      "InstanceNumber": [1, 2, 3, 4, 5, 6, 7, 8, 9, 10, 11, 12, 13, 14, 15, 16, 17, 18, 19, 20, 21, 22, 23, 24, 25, 26, 27, 28, 29, 30, 31, 32, 33, 34, 35, 36, 37, 38, 39, 40, 41, 42, 43, 44, 45, 46, 47, 48, 49, 50, 51, 52, 53, 54, 55, 56, 57, 58, 59, 60, 61, 62, 63, 64, 65, 66, 67, 68, 69, 70, 71, 72, 73, 74, 75, 76, 77, 78, 79, 80, 81, 82, 83, 84, 85, 86, 87, 88, 89, 90, 91, 92, 93, 94, 95, 96, 97, 98, 99, 100, 101, 102, 103, 104, 105, 106, 107, 108, 109, 110, 111, 112, 113, 114, 115, 116, 117, 118, 119, 120, 121, 122, 123, 124, 125, 126, 127, 128, 129, 130, 131, 132, 133, 134, 135, 136, 137, 138, 139, 140, 141, 142, 143, 144, 145, 146, 147, 148, 149, 150, 151, 152, 153, 154, 155, 156, 157, 158, 159, 160, 161, 162, 163, 164, 165, 166, 167, 168, 169, 170, 171, 172, 173, 174, 175, 176, 177, 178, 179, 180, 181, 182, 183, 184, 185, 186, 187, 188, 189, 190, 191, 192, 193, 194, 195, 196, 197, 198, 199, 200, 201, 202, 203, 204, 205, 206, 207, 208, 209, 210, 211, 212, 213, 214, 215, 216, 217, 218, 219, 220, 221, 222, 223, 224, 225, 226, 227, 228, 229, 230, 231, 232, 233, 234, 235, 236, 237, 238, 239, 240, 241, 242, 243, 244, 245, 246, 247, 248, 249, 250, 251, 252, 253, 254, 255, 256, 257, 258, 259, 260, 261, 262, 263, 264, 265, 266, 267, 268, 269, 270, 271, 272, 273, 274, 275, 276, 277, 278, 279, 280, 281, 282, 283, 284, 285, 286, 287, 288, 289, 290, 291, 292, 293, 294, 295, 296, 297, 298, 299, 300],
      "LargestImagePixelValue": [1903, 1784, 1841, 1371, 1624, 1501, 2038, 1651, 1598, 1672, 1460, 1719, 1555, 1414, 1976, 1578, 1995, 1641, 2020, 1802, 1763, 1921, 1393, 1366, 1847, 1813, 1916, 2010, 1739, 1578, 1954, 1795, 1746, 1548, 1368, 1755, 1623, 1992, 1922, 1758, 1912, 1637, 1698, 1769, 1356, 1459, 1691, 2017, 1941, 1533, 2051, 1895, 1822, 1916, 1845, 1531, 1788, 1901, 1651, 1638, 1861, 1632, 1835, 1436, 1553, 1666, 1993, 1605, 1626, 1394, 1536, 2056, 1388, 1400, 1600, 1715, 1655, 1402, 1750, 1924, 1669, 1755, 1877, 1380, 1825, 1574, 1775, 1801, 2028, 1966, 1992, 2068, 1739, 1831, 1731, 1374, 1772, 1992, 1966, 1852, 1771, 1700, 1387, 1571, 1625, 2101, 1586, 1644, 2060, 1970, 1612, 2044, 1922, 1974, 1656, 1940, 1932, 1934, 2039, 1563, 1713, 1856, 2081, 1885, 1845, 2085, 1802, 2016, 2025, 1834, 2018, 1935, 1970, 1771, 1859, 2002, 2039, 1956, 1528, 1763, 1917, 1992, 1773, 1394, 1700, 2072, 1833, 2105, 2087, 1884, 2090, 1428, 1668, 1945, 1888, 1892, 1701, 1853, 1941, 2072, 1952, 2137, 2022, 1590, 1406, 1973, 2072, 1661, 1394, 1865, 2074, 1976, 1697, 1757, 1923, 1889, 1681, 2003, 1652, 1471, 1723, 2007, 2166, 1534, 2047, 1814, 1365, 1992, 1656, 1384, 1792, 1838, 2049, 2021, 1992, 1791, 1744, 1467, 1712, 2078, 1746, 2034, 1910, 1391, 1823, 1417, 1918, 1997, 1755, 2049, 1818, 1364, 1578, 1913, 1403, 1935, 1624, 2016, 2153, 1620, 2086, 1672, 1560, 1924, 2172, 1604, 1605, 2120, 2021, 1569, 1538, 2033, 1724, 1884, 1987, 1946, 1505, 1428, 1957, 1836, 1402, 1849, 1405, 1578, 1501, 2030, 2161, 2133, 1881, 1382, 1683, 1893, 2065, 2126, 2089, 2019, 2201, 1912, 1662, 2072, 1958, 1422, 1961, 1533, 1722, 1415, 2050, 1927, 2089, 1375, 1796, 1630, 1864, 2192, 2076, 2188, 2210, 1908, 1454, 1392, 1852, 1812, 2100, 2038, 1963, 2116, 1793, 1423, 1559, 1664, 2145, 1958, 2188, 1396, 2101, 1406, 2039, 1969, 2252, 1964],
      "WindowCenter": [613.0, 609.0, 608.0, 605.0, 607.0, 606.0, 608.0, 605.0, 605.0, 607.0, 605.0, 606.0, 605.0, 604.0, 607.0, 605.0, 606.0, 605.0, 607.0, 606.0, 606.0, 607.0, 604.0, 604.0, 607.0, 607.0, 608.0, 608.0, 605.0, 604.0, 607.0, 607.0, 607.0, 607.0, 605.0, 608.0, 607.0, 609.0, 608.0, 607.0, 608.0, 606.0, 608.0, 608.0, 605.0, 606.0, 608.0, 609.0, 608.0, 607.0, 610.0, 609.0, 608.0, 609.0, 609.0, 607.0, 608.0, 610.0, 609.0, 609.0, 610.0, 609.0, 610.0, 607.0, 608.0, 609.0, 610.0, 608.0, 608.0, 607.0, 608.0, 611.0, 606.0, 607.0, 610.0, 610.0, 610.0, 608.0, 611.0, 611.0, 610.0, 610.0, 611.0, 608.0, 611.0, 609.0, 611.0, 612.0, 612.0, 612.0, 611.0, 612.0, 609.0, 609.0, 610.0, 607.0, 610.0, 610.0, 611.0, 609.0, 609.0, 610.0, 607.0, 609.0, 610.0, 611.0, 609.0, 609.0, 612.0, 611.0, 609.0, 611.0, 611.0, 612.0, 610.0, 612.0, 613.0, 612.0, 613.0, 612.0, 613.0, 613.0, 614.0, 611.0, 611.0, 613.0, 611.0, 612.0, 612.0, 611.0, 611.0, 611.0, 613.0, 610.0, 611.0, 613.0, 613.0, 614.0, 610.0, 611.0, 613.0, 614.0, 613.0, 611.0, 614.0, 615.0, 614.0, 615.0, 616.0, 614.0, 614.0, 611.0, 613.0, 614.0, 613.0, 613.0, 611.0, 612.0, 613.0, 614.0, 613.0, 614.0, 614.0, 612.0, 610.0, 614.0, 614.0, 612.0, 610.0, 613.0, 615.0, 614.0, 612.0, 612.0, 613.0, 614.0, 613.0, 615.0, 614.0, 612.0, 614.0, 616.0, 617.0, 612.0, 615.0, 613.0, 611.0, 616.0, 612.0, 610.0, 614.0, 613.0, 615.0, 615.0, 615.0, 613.0, 613.0, 612.0, 612.0, 614.0, 613.0, 615.0, 614.0, 612.0, 615.0, 612.0, 615.0, 615.0, 614.0, 616.0, 615.0, 612.0, 615.0, 617.0, 613.0, 616.0, 614.0, 616.0, 617.0, 614.0, 616.0, 615.0, 614.0, 616.0, 616.0, 613.0, 613.0, 616.0, 616.0, 614.0, 614.0, 616.0, 615.0, 616.0, 617.0, 617.0, 615.0, 614.0, 617.0, 616.0, 614.0, 617.0, 613.0, 614.0, 614.0, 618.0, 619.0, 618.0, 616.0, 613.0, 616.0, 617.0, 618.0, 618.0, 618.0, 617.0, 617.0, 616.0, 615.0, 618.0, 617.0, 614.0, 618.0, 617.0, 617.0, 615.0, 620.0, 618.0, 620.0, 615.0, 619.0, 617.0, 618.0, 619.0, 618.0, 617.0, 618.0, 615.0, 613.0, 612.0, 616.0, 615.0, 617.0, 617.0, 617.0, 619.0, 617.0, 615.0, 618.0, 618.0, 620.0, 618.0, 619.0, 615.0, 618.0, 613.0, 618.0, 616.0, 618.0, 616.0],
      "WindowWidth": [1293.0, 1285.0, 1282.0, 1276.0, 1279.0, 1278.0, 1281.0, 1275.0, 1275.0, 1278.0, 1275.0, 1278.0, 1276.0, 1274.0, 1280.0, 1275.0, 1277.0, 1274.0, 1278.0, 1277.0, 1276.0, 1278.0, 1272.0, 1274.0, 1280.0, 1279.0, 1280.0, 1282.0, 1276.0, 1273.0, 1279.0, 1278.0, 1279.0, 1279.0, 1275.0, 1280.0, 1279.0, 1282.0, 1282.0, 1279.0, 1281.0, 1277.0, 1280.0, 1282.0, 1276.0, 1278.0, 1281.0, 1283.0, 1281.0, 1279.0, 1285.0, 1284.0, 1282.0, 1284.0, 1283.0, 1279.0, 1281.0, 1285.0, 1283.0, 1285.0, 1286.0, 1284.0, 1286.0, 1280.0, 1282.0, 1285.0, 1286.0, 1281.0, 1282.0, 1281.0, 1283.0, 1287.0, 1278.0, 1281.0, 1286.0, 1287.0, 1285.0, 1282.0, 1288.0, 1288.0, 1285.0, 1286.0, 1287.0, 1282.0, 1289.0, 1285.0, 1288.0, 1290.0, 1291.0, 1290.0, 1288.0, 1290.0, 1284.0, 1284.0, 1286.0, 1280.0, 1287.0, 1286.0, 1287.0, 1284.0, 1283.0, 1285.0, 1280.0, 1284.0, 1286.0, 1289.0, 1284.0, 1285.0, 1290.0, 1288.0, 1283.0, 1288.0, 1289.0, 1289.0, 1285.0, 1290.0, 1292.0, 1291.0, 1293.0, 1291.0, 1293.0, 1293.0, 1294.0, 1289.0, 1289.0, 1292.0, 1288.0, 1290.0, 1289.0, 1287.0, 1288.0, 1288.0, 1291.0, 1286.0, 1288.0, 1291.0, 1293.0, 1294.0, 1286.0, 1288.0, 1291.0, 1293.0, 1293.0, 1289.0, 1295.0, 1297.0, 1296.0, 1298.0, 1298.0, 1295.0, 1295.0, 1290.0, 1293.0, 1295.0, 1292.0, 1292.0, 1289.0, 1290.0, 1292.0, 1293.0, 1291.0, 1295.0, 1295.0, 1290.0, 1287.0, 1294.0, 1295.0, 1291.0, 1287.0, 1293.0, 1296.0, 1294.0, 1290.0, 1290.0, 1293.0, 1295.0, 1292.0, 1296.0, 1294.0, 1291.0, 1294.0, 1299.0, 1301.0, 1292.0, 1297.0, 1293.0, 1289.0, 1299.0, 1290.0, 1288.0, 1295.0, 1293.0, 1296.0, 1296.0, 1296.0, 1293.0, 1293.0, 1291.0, 1291.0, 1295.0, 1293.0, 1296.0, 1295.0, 1291.0, 1298.0, 1290.0, 1298.0, 1297.0, 1294.0, 1299.0, 1297.0, 1292.0, 1298.0, 1301.0, 1294.0, 1300.0, 1295.0, 1300.0, 1302.0, 1295.0, 1300.0, 1297.0, 1296.0, 1299.0, 1300.0, 1294.0, 1294.0, 1300.0, 1300.0, 1295.0, 1295.0, 1300.0, 1298.0, 1299.0, 1300.0, 1301.0, 1297.0, 1296.0, 1302.0, 1298.0, 1295.0, 1303.0, 1293.0, 1296.0, 1297.0, 1305.0, 1307.0, 1303.0, 1300.0, 1294.0, 1301.0, 1302.0, 1303.0, 1304.0, 1303.0, 1302.0, 1303.0, 1299.0, 1298.0, 1303.0, 1302.0, 1296.0, 1304.0, 1302.0, 1302.0, 1299.0, 1309.0, 1305.0, 1308.0, 1299.0, 1307.0, 1302.0, 1304.0, 1306.0, 1303.0, 1301.0, 1303.0, 1298.0, 1292.0, 1293.0, 1299.0, 1298.0, 1301.0, 1302.0, 1301.0, 1306.0, 1302.0, 1299.0, 1304.0, 1304.0, 1307.0, 1304.0, 1307.0, 1299.0, 1305.0, 1295.0, 1304.0, 1301.0, 1305.0, 1299.0]
    },
    "slices": {}
  }
}