{
  "AcquisitionMatrixPE": 74,
  "AcquisitionNumber": 1,
  "AcquisitionTime": "09:24:25.757500",
  "BandwidthPerPixelPhaseEncode": 27.579,
  "BaseResolution": 74,
  "BodyPartExamined": "HEAD",
  "CoilString": "t:HEA;HEP",
  "ConversionSoftware": "dcm2niix",
  "ConversionSoftwareVersion": "v1.0.20190410  GCC6.3.0",
  "DerivedVendorReportedEchoSpacing": 0.000489993,
  "DeviceSerialNumber": "35256",
  "DwellTime": 2.4e-06,
  "EchoTime": 0.03,
  "EffectiveEchoSpacing": 0.000489993,
  "FlipAngle": 70,
  "ImageOrientationPatientDICOM": [1, 0, 0, 0, 1, 0],
  "ImageType": [
    "ORIGINAL",
    "PRIMARY",
    "M",
    "ND",
    "NORM",
    "MOSAIC"
],
  "ImagingFrequency": 123.223,
  "InPlanePhaseEncodingDirectionDICOM": "COL",
  "InstitutionAddress": "East_Lee_St._2907_Greensboro_NC_US_27401",
  "InstitutionName": "JSNN",
  "InstitutionalDepartmentName": "Department",
  "MRAcquisitionType": "2D",
  "MagneticFieldStrength": 3,
  "Manufacturer": "Siemens",
  "ManufacturersModelName": "TrioTim",
  "Modality": "MR",
  "PartialFourier": 1,
  "PatientPosition": "HFS",
  "PercentPhaseFOV": 100,
  "PhaseEncodingDirection": "j-",
  "PhaseEncodingSteps": 74,
  "PhaseResolution": 1,
  "PixelBandwidth": 2815,
  "ProcedureStepDescription": "head_Cassidy",
  "ProtocolName": "RestingState",
  "PulseSequenceDetails": "%SiemensSeq%_ep2d_bold",
  "ReceiveCoilName": "HeadMatrix",
  "ReconMatrixPE": 74,
  "RepetitionTime": 2,
  "SAR": 0.0888202,
  "ScanOptions": "FS",
  "ScanningSequence": "EP",
  "SequenceName": "_epfid2d1_74",
  "SequenceVariant": "SK",
  "SeriesDescription": "RestingState",
  "SeriesNumber": 3,
  "ShimSetting": [1372, 10550, -8719, 311, -34, -567, 156, -107],
  "SliceThickness": 4,
  "SliceTiming": [1.945, 1.8825, 1.82, 1.7575, 1.695, 1.6325, 1.57, 1.5075, 1.445, 1.38, 1.3175, 1.255, 1.1925, 1.13, 1.0675, 1.005, 0.9425, 0.88, 0.8175, 0.755, 0.69, 0.6275, 0.565, 0.5025, 0.44, 0.3775, 0.315, 0.2525, 0.19, 0.1275, 0.0625, 0],
  "SoftwareVersions": "syngo_MR_B19",
  "SpacingBetweenSlices": 4,
  "StationName": "JSNNMRI",
  "TaskName": "rest",
  "TotalReadoutTime": 0.0357695,
  "TxRefAmp": 274.269,
  "dcmmeta_affine": [
    [-2.972972869873047, 0.0, 0.0, 105.18071746826172],
    [0.0, 2.972972869873047, 0.0, -90.17401123046875],
    [0.0, 0.0, 3.999999761581421, -40.356624603271484],
    [0.0, 0.0, 0.0, 1.0]
],
  "dcmmeta_reorient_transform": [
    [0.0, -1.0, 0.0, 73.0],
    [1.0, 0.0, 0.0, 0.0],
    [0.0, 0.0, 1.0, 0.0],
    [0.0, 0.0, 0.0, 1.0]
],
  "dcmmeta_shape": [74, 74, 32, 300],
  "dcmmeta_slice_dim": 2,
  "dcmmeta_version": 0.6,
  "global": {
    "const": {
      "AcquisitionMatrix": [74, 0, 0, 74],
      "AngioFlag": "N",
      "BitsAllocated": 16,
      "BitsStored": 12,
      "BodyPartExamined": "HEAD",
      "Columns": 444,
      "EchoNumbers": 1,
      "EchoTime": 30.0,
      "EchoTrainLength": 1,
      "FlipAngle": 70.0,
      "HighBit": 11,
      "ImageOrientationPatient": [1.0, 0.0, 0.0, 0.0, 1.0, 0.0],
      "ImagePositionPatient": [-655.18069982529, -676.85298919678, -40.356624603271],
      "ImageType": [
        "ORIGINAL",
        "PRIMARY",
        "M",
        "ND",
        "NORM",
        "MOSAIC"
],
      "ImagedNucleus": "1H",
      "ImagingFrequency": 123.223088,
      "InPlanePhaseEncodingDirection": "COL",
      "MRAcquisitionType": "2D",
      "MagneticFieldStrength": 3.0,
      "Manufacturer": "SIEMENS",
      "ManufacturerModelName": "TrioTim",
      "Modality": "MR",
      "NumberOfAverages": 1.0,
      "NumberOfPhaseEncodingSteps": 74,
      "PercentPhaseFieldOfView": 100.0,
      "PercentSampling": 100.0,
      "PerformedProcedureStepStartTime": "082607.564000",
      "PhotometricInterpretation": "MONOCHROME2",
      "PixelBandwidth": 2815.0,
      "PixelRepresentation": 0,
      "PixelSpacing": [2.972972869873, 2.972972869873],
      "ProtocolName": "RestingState",
      "RepetitionTime": 2000.0,
      "Rows": 444,
      "SAR": 0.08882015127056,
      "SamplesPerPixel": 1,
      "ScanOptions": "FS",
      "ScanningSequence": "EP",
      "SequenceName": "*epfid2d1_74",
      "SequenceVariant": "SK",
      "SeriesDescription": "RestingState",
      "SeriesNumber": 3,
      "SeriesTime": "092524.586000",
      "SliceLocation": -40.356624603271,
      "SliceThickness": 4.0,
      "SmallestImagePixelValue": 0,
      "SoftwareVersions": "syngo MR B19",
      "SpacingBetweenSlices": 3.9999998769452,
      "SpecificCharacterSet": "ISO_IR 100",
      "StudyID": "1",
      "StudyTime": "082607.476000",
      "TransmitCoilName": "Body",
      "VariableFlipAngleFlag": "N",
      "WindowCenterWidthExplanation": "Algo1",
      "dBdt": 0.0},
    "slices": {}
  },
  "time": {
    "samples": {
      "AcquisitionNumber": [1, 2, 3, 4, 5, 6, 7, 8, 9, 10, 11, 12, 13, 14, 15, 16, 17, 18, 19, 20, 21, 22, 23, 24, 25, 26, 27, 28, 29, 30, 31, 32, 33, 34, 35, 36, 37, 38, 39, 40, 41, 42, 43, 44, 45, 46, 47, 48, 49, 50, 51, 52, 53, 54, 55, 56, 57, 58, 59, 60, 61, 62, 63, 64, 65, 66, 67, 68, 69, 70, 71, 72, 73, 74, 75, 76, 77, 78, 79, 80, 81, 82, 83, 84, 85, 86, 87, 88, 89, 90, 91, 92, 93, 94, 95, 96, 97, 98, 99, 100, 101, 102, 103, 104, 105, 106, 107, 108, 109, 110, 111, 112, 113, 114, 115, 116, 117, 118, 119, 120, 121, 122, 123, 124, 125, 126, 127, 128, 129, 130, 131, 132, 133, 134, 135, 136, 137, 138, 139, 140, 141, 142, 143, 144, 145, 146, 147, 148, 149, 150, 151, 152, 153, 154, 155, 156, 157, 158, 159, 160, 161, 162, 163, 164, 165, 166, 167, 168, 169, 170, 171, 172, 173, 174, 175, 176, 177, 178, 179, 180, 181, 182, 183, 184, 185, 186, 187, 188, 189, 190, 191, 192, 193, 194, 195, 196, 197, 198, 199, 200, 201, 202, 203, 204, 205, 206, 207, 208, 209, 210, 211, 212, 213, 214, 215, 216, 217, 218, 219, 220, 221, 222, 223, 224, 225, 226, 227, 228, 229, 230, 231, 232, 233, 234, 235, 236, 237, 238, 239, 240, 241, 242, 243, 244, 245, 246, 247, 248, 249, 250, 251, 252, 253, 254, 255, 256, 257, 258, 259, 260, 261, 262, 263, 264, 265, 266, 267, 268, 269, 270, 271, 272, 273, 274, 275, 276, 277, 278, 279, 280, 281, 282, 283, 284, 285, 286, 287, 288, 289, 290, 291, 292, 293, 294, 295, 296, 297, 298, 299, 300],
      "AcquisitionTime": ["092425.757500", "092427.765000", "092429.775000", "092431.782500", "092433.790000", "092435.797500", "092437.807500", "092439.815000", "092441.822500", "092443.830000", "092445.837500", "092447.847500", "092449.855000", "092451.862500", "092453.870000", "092455.877500", "092457.887500", "092459.895000", "092501.902500", "092503.910000", "092505.920000", "092507.927500", "092509.935000", "092511.942500", "092513.950000", "092515.960000", "092517.967500", "092519.975000", "092521.982500", "092523.990000", "092526.000000", "092528.007500", "092530.015000", "092532.022500", "092534.032500", "092536.040000", "092538.047500", "092540.055000", "092542.062500", "092544.072500", "092546.080000", "092548.087500", "092550.095000", "092552.102500", "092554.112500", "092556.120000", "092558.127500", "092600.135000", "092602.142500", "092604.152500", "092606.160000", "092608.167500", "092610.175000", "092612.185000", "092614.192500", "092616.200000", "092618.207500", "092620.215000", "092622.225000", "092624.232500", "092626.240000", "092628.247500", "092630.255000", "092632.265000", "092634.272500", "092636.280000", "092638.287500", "092640.297500", "092642.305000", "092644.312500", "092646.320000", "092648.327500", "092650.337500", "092652.345000", "092654.352500", "092656.360000", "092658.367500", "092700.377500", "092702.385000", "092704.392500", "092706.400000", "092708.410000", "092710.417500", "092712.425000", "092714.432500", "092716.440000", "092718.450000", "092720.457500", "092722.465000", "092724.472500", "092726.480000", "092728.490000", "092730.497500", "092732.505000", "092734.512500", "092736.520000", "092738.530000", "092740.537500", "092742.545000", "092744.552500", "092746.562500", "092748.570000", "092750.577500", "092752.585000", "092754.592500", "092756.602500", "092758.610000", "092800.617500", "092802.625000", "092804.632500", "092806.642500", "092808.650000", "092810.657500", "092812.665000", "092814.675000", "092816.682500", "092818.690000", "092820.697500", "092822.705000", "092824.715000", "092826.722500", "092828.730000", "092830.737500", "092832.745000", "092834.755000", "092836.762500", "092838.770000", "092840.777500", "092842.787500", "092844.795000", "092846.802500", "092848.810000", "092850.817500", "092852.827500", "092854.835000", "092856.842500", "092858.850000", "092900.857500", "092902.867500", "092904.875000", "092906.882500", "092908.890000", "092910.897500", "092912.907500", "092914.915000", "092916.922500", "092918.930000", "092920.940000", "092922.947500", "092924.955000", "092926.962500", "092928.970000", "092930.980000", "092932.987500", "092934.995000", "092937.002500", "092939.010000", "092941.020000", "092943.027500", "092945.035000", "092947.042500", "092949.052500", "092951.060000", "092953.067500", "092955.075000", "092957.082500", "092959.092500", "093001.100000", "093003.107500", "093005.115000", "093007.122500", "093009.132500", "093011.140000", "093013.147500", "093015.155000", "093017.165000", "093019.172500", "093021.180000", "093023.187500", "093025.195000", "093027.205000", "093029.212500", "093031.220000", "093033.227500", "093035.235000", "093037.245000", "093039.252500", "093041.260000", "093043.267500", "093045.275000", "093047.285000", "093049.292500", "093051.300000", "093053.307500", "093055.317500", "093057.325000", "093059.332500", "093101.340000", "093103.347500", "093105.357500", "093107.365000", "093109.372500", "093111.380000", "093113.387500", "093115.397500", "093117.405000", "093119.412500", "093121.420000", "093123.430000", "093125.437500", "093127.445000", "093129.452500", "093131.460000", "093133.470000", "093135.477500", "093137.485000", "093139.492500", "093141.500000", "093143.510000", "093145.517500", "093147.525000", "093149.532500", "093151.542500", "093153.550000", "093155.557500", "093157.565000", "093159.572500", "093201.582500", "093203.590000", "093205.597500", "093207.605000", "093209.612500", "093211.622500", "093213.630000", "093215.637500", "093217.645000", "093219.655000", "093221.662500", "093223.670000", "093225.677500", "093227.685000", "093229.695000", "093231.702500", "093233.710000", "093235.717500", "093237.725000", "093239.735000", "093241.742500", "093243.750000", "093245.757500", "093247.765000", "093249.775000", "093251.782500", "093253.790000", "093255.797500", "093257.807500", "093259.815000", "093301.822500", "093303.830000", "093305.837500", "093307.847500", "093309.855000", "093311.862500", "093313.870000", "093315.877500", "093317.887500", "093319.895000", "093321.902500", "093323.910000", "093325.920000", "093327.927500", "093329.935000", "093331.942500", "093333.950000", "093335.960000", "093337.967500", "093339.975000", "093341.982500", "093343.990000", "093346.000000", "093348.007500", "093350.015000", "093352.022500", "093354.032500", "093356.040000", "093358.047500", "093400.055000", "093402.062500", "093404.072500", "093406.080000", "093408.087500", "093410.095000", "093412.102500", "093414.112500", "093416.120000", "093418.127500", "093420.135000", "093422.142500", "093424.152500", "093426.160000"],
      "ContentTime": ["092524.589000", "092524.591000", "092524.594000", "092524.596000", "092524.606000", "092524.609000", "092524.616000", "092524.616000", "092524.619000", "092524.621000", "092524.624000", "092524.626000", "092524.626000", "092524.629000", "092524.631000", "092524.634000", "092524.634000", "092524.636000", "092524.639000", "092524.641000", "092524.641000", "092524.644000", "092524.646000", "092524.651000", "092524.654000", "092524.654000", "092524.656000", "092524.659000", "092524.661000", "092604.587000", "092604.587000", "092604.589000", "092604.592000", "092604.594000", "092604.594000", "092604.597000", "092604.599000", "092604.602000", "092604.604000", "092604.604000", "092604.607000", "092604.609000", "092604.612000", "092604.612000", "092604.614000", "092604.617000", "092604.619000", "092604.619000", "092604.622000", "092644.585000", "092644.587000", "092644.590000", "092644.592000", "092644.592000", "092644.595000", "092644.597000", "092644.600000", "092644.602000", "092644.602000", "092644.605000", "092644.607000", "092644.610000", "092644.610000", "092644.612000", "092644.615000", "092644.617000", "092644.617000", "092644.620000", "092644.622000", "092724.583000", "092724.585000", "092724.588000", "092724.590000", "092724.593000", "092724.593000", "092724.595000", "092724.598000", "092724.600000", "092724.600000", "092724.603000", "092724.605000", "092724.608000", "092724.608000", "092724.610000", "092724.613000", "092724.615000", "092724.615000", "092724.618000", "092724.620000", "092804.583000", "092804.586000", "092804.588000", "092804.591000", "092804.593000", "092804.593000", "092804.596000", "092804.598000", "092804.601000", "092804.601000", "092804.603000", "092804.606000", "092804.608000", "092804.608000", "092804.611000", "092804.613000", "092804.616000", "092804.616000", "092804.618000", "092804.621000", "092844.584000", "092844.587000", "092844.589000", "092844.592000", "092844.594000", "092844.594000", "092844.597000", "092844.599000", "092844.602000", "092844.602000", "092844.604000", "092844.607000", "092844.609000", "092844.609000", "092844.612000", "092844.614000", "092844.617000", "092844.617000", "092844.619000", "092844.622000", "092924.585000", "092924.587000", "092924.590000", "092924.592000", "092924.595000", "092924.595000", "092924.597000", "092924.600000", "092924.602000", "092924.602000", "092924.605000", "092924.607000", "092924.610000", "092924.610000", "092924.612000", "092924.615000", "092924.617000", "092924.617000", "092924.620000", "092924.622000", "093004.583000", "093004.585000", "093004.588000", "093004.590000", "093004.593000", "093004.593000", "093004.595000", "093004.598000", "093004.600000", "093004.600000", "093004.603000", "093004.605000", "093004.608000", "093004.608000", "093004.610000", "093004.613000", "093004.615000", "093004.615000", "093004.618000", "093004.620000", "093044.583000", "093044.586000", "093044.588000", "093044.591000", "093044.591000", "093044.593000", "093044.596000", "093044.598000", "093044.601000", "093044.601000", "093044.603000", "093044.606000", "093044.608000", "093044.608000", "093044.611000", "093044.613000", "093044.616000", "093044.616000", "093044.618000", "093044.621000", "093124.587000", "093124.587000", "093124.589000", "093124.592000", "093124.594000", "093124.594000", "093124.597000", "093124.599000", "093124.602000", "093124.602000", "093124.604000", "093124.607000", "093124.609000", "093124.609000", "093124.612000", "093124.614000", "093124.617000", "093124.617000", "093124.619000", "093124.622000", "093204.585000", "093204.587000", "093204.590000", "093204.592000", "093204.592000", "093204.595000", "093204.597000", "093204.600000", "093204.602000", "093204.602000", "093204.605000", "093204.607000", "093204.610000", "093204.610000", "093204.612000", "093204.615000", "093204.617000", "093204.617000", "093204.620000", "093204.622000", "093244.583000", "093244.585000", "093244.588000", "093244.590000", "093244.593000", "093244.598000", "093244.600000", "093244.603000", "093244.605000", "093244.605000", "093244.608000", "093244.610000", "093244.613000", "093244.613000", "093244.615000", "093244.618000", "093244.620000", "093244.623000", "093244.623000", "093244.625000", "093324.583000", "093324.586000", "093324.588000", "093324.591000", "093324.593000", "093324.593000", "093324.596000", "093324.598000", "093324.601000", "093324.601000", "093324.603000", "093324.606000", "093324.608000", "093324.608000", "093324.611000", "093324.613000", "093324.616000", "093324.616000", "093324.618000", "093324.621000", "093404.584000", "093404.587000", "093404.589000", "093404.592000", "093404.592000", "093404.594000", "093404.597000", "093404.599000", "093404.602000", "093404.602000", "093404.604000", "093404.607000", "093404.609000", "093404.622000", "093404.624000", "093404.624000", "093404.627000", "093404.629000", "093404.632000", "093404.632000", "093425.532000", "093425.534000", "093425.537000", "093425.539000", "093425.542000", "093425.542000", "093425.544000", "093425.547000", "093425.549000", "093425.549000", "093425.552000"],
      "InstanceCreationTime": ["092524.589000", "092524.591000", "092524.594000", "092524.596000", "092524.606000", "092524.609000", "092524.616000", "092524.616000", "092524.619000", "092524.621000", "092524.624000", "092524.626000", "092524.626000", "092524.629000", "092524.631000", "092524.634000", "092524.634000", "092524.636000", "092524.639000", "092524.641000", "092524.641000", "092524.644000", "092524.646000", "092524.651000", "092524.654000", "092524.654000", "092524.656000", "092524.659000", "092524.661000", "092604.587000", "092604.587000", "092604.589000", "092604.592000", "092604.594000", "092604.594000", "092604.597000", "092604.599000", "092604.602000", "092604.604000", "092604.604000", "092604.607000", "092604.609000", "092604.612000", "092604.612000", "092604.614000", "092604.617000", "092604.619000", "092604.619000", "092604.622000", "092644.585000", "092644.587000", "092644.590000", "092644.592000", "092644.592000", "092644.595000", "092644.597000", "092644.600000", "092644.602000", "092644.602000", "092644.605000", "092644.607000", "092644.610000", "092644.610000", "092644.612000", "092644.615000", "092644.617000", "092644.617000", "092644.620000", "092644.622000", "092724.583000", "092724.585000", "092724.588000", "092724.590000", "092724.593000", "092724.593000", "092724.595000", "092724.598000", "092724.600000", "092724.600000", "092724.603000", "092724.605000", "092724.608000", "092724.608000", "092724.610000", "092724.613000", "092724.615000", "092724.615000", "092724.618000", "092724.620000", "092804.583000", "092804.586000", "092804.588000", "092804.591000", "092804.593000", "092804.593000", "092804.596000", "092804.598000", "092804.601000", "092804.601000", "092804.603000", "092804.606000", "092804.608000", "092804.608000", "092804.611000", "092804.613000", "092804.616000", "092804.616000", "092804.618000", "092804.621000", "092844.584000", "092844.587000", "092844.589000", "092844.592000", "092844.594000", "092844.594000", "092844.597000", "092844.599000", "092844.602000", "092844.602000", "092844.604000", "092844.607000", "092844.609000", "092844.609000", "092844.612000", "092844.614000", "092844.617000", "092844.617000", "092844.619000", "092844.622000", "092924.585000", "092924.587000", "092924.590000", "092924.592000", "092924.595000", "092924.595000", "092924.597000", "092924.600000", "092924.602000", "092924.602000", "092924.605000", "092924.607000", "092924.610000", "092924.610000", "092924.612000", "092924.615000", "092924.617000", "092924.617000", "092924.620000", "092924.622000", "093004.583000", "093004.585000", "093004.588000", "093004.590000", "093004.593000", "093004.593000", "093004.595000", "093004.598000", "093004.600000", "093004.600000", "093004.603000", "093004.605000", "093004.608000", "093004.608000", "093004.610000", "093004.613000", "093004.615000", "093004.615000", "093004.618000", "093004.620000", "093044.583000", "093044.586000", "093044.588000", "093044.591000", "093044.591000", "093044.593000", "093044.596000", "093044.598000", "093044.601000", "093044.601000", "093044.603000", "093044.606000", "093044.608000", "093044.608000", "093044.611000", "093044.613000", "093044.616000", "093044.616000", "093044.618000", "093044.621000", "093124.587000", "093124.587000", "093124.589000", "093124.592000", "093124.594000", "093124.594000", "093124.597000", "093124.599000", "093124.602000", "093124.602000", "093124.604000", "093124.607000", "093124.609000", "093124.609000", "093124.612000", "093124.614000", "093124.617000", "093124.617000", "093124.619000", "093124.622000", "093204.585000", "093204.587000", "093204.590000", "093204.592000", "093204.592000", "093204.595000", "093204.597000", "093204.600000", "093204.602000", "093204.602000", "093204.605000", "093204.607000", "093204.610000", "093204.610000", "093204.612000", "093204.615000", "093204.617000", "093204.617000", "093204.620000", "093204.622000", "093244.583000", "093244.585000", "093244.588000", "093244.590000", "093244.593000", "093244.598000", "093244.600000", "093244.603000", "093244.605000", "093244.605000", "093244.608000", "093244.610000", "093244.613000", "093244.613000", "093244.615000", "093244.618000", "093244.620000", "093244.623000", "093244.623000", "093244.625000", "093324.583000", "093324.586000", "093324.588000", "093324.591000", "093324.593000", "093324.593000", "093324.596000", "093324.598000", "093324.601000", "093324.601000", "093324.603000", "093324.606000", "093324.608000", "093324.608000", "093324.611000", "093324.613000", "093324.616000", "093324.616000", "093324.618000", "093324.621000", "093404.584000", "093404.587000", "093404.589000", "093404.592000", "093404.592000", "093404.594000", "093404.597000", "093404.599000", "093404.602000", "093404.602000", "093404.604000", "093404.607000", "093404.609000", "093404.622000", "093404.624000", "093404.624000", "093404.627000", "093404.629000", "093404.632000", "093404.632000", "093425.532000", "093425.534000", "093425.537000", "093425.539000", "093425.542000", "093425.542000", "093425.544000", "093425.547000", "093425.549000", "093425.549000", "093425.552000"],
      "InstanceNumber": [1, 2, 3, 4, 5, 6, 7, 8, 9, 10, 11, 12, 13, 14, 15, 16, 17, 18, 19, 20, 21, 22, 23, 24, 25, 26, 27, 28, 29, 30, 31, 32, 33, 34, 35, 36, 37, 38, 39, 40, 41, 42, 43, 44, 45, 46, 47, 48, 49, 50, 51, 52, 53, 54, 55, 56, 57, 58, 59, 60, 61, 62, 63, 64, 65, 66, 67, 68, 69, 70, 71, 72, 73, 74, 75, 76, 77, 78, 79, 80, 81, 82, 83, 84, 85, 86, 87, 88, 89, 90, 91, 92, 93, 94, 95, 96, 97, 98, 99, 100, 101, 102, 103, 104, 105, 106, 107, 108, 109, 110, 111, 112, 113, 114, 115, 116, 117, 118, 119, 120, 121, 122, 123, 124, 125, 126, 127, 128, 129, 130, 131, 132, 133, 134, 135, 136, 137, 138, 139, 140, 141, 142, 143, 144, 145, 146, 147, 148, 149, 150, 151, 152, 153, 154, 155, 156, 157, 158, 159, 160, 161, 162, 163, 164, 165, 166, 167, 168, 169, 170, 171, 172, 173, 174, 175, 176, 177, 178, 179, 180, 181, 182, 183, 184, 185, 186, 187, 188, 189, 190, 191, 192, 193, 194, 195, 196, 197, 198, 199, 200, 201, 202, 203, 204, 205, 206, 207, 208, 209, 210, 211, 212, 213, 214, 215, 216, 217, 218, 219, 220, 221, 222, 223, 224, 225, 226, 227, 228, 229, 230, 231, 232, 233, 234, 235, 236, 237, 238, 239, 240, 241, 242, 243, 244, 245, 246, 247, 248, 249, 250, 251, 252, 253, 254, 255, 256, 257, 258, 259, 260, 261, 262, 263, 264, 265, 266, 267, 268, 269, 270, 271, 272, 273, 274, 275, 276, 277, 278, 279, 280, 281, 282, 283, 284, 285, 286, 287, 288, 289, 290, 291, 292, 293, 294, 295, 296, 297, 298, 299, 300],
      "LargestImagePixelValue": [1709, 1760, 1684, 1590, 1593, 1596, 1578, 1599, 1586, 1561, 1760, 1622, 1592, 1573, 1602, 1600, 1617, 1595, 1592, 1597, 1588, 1558, 1557, 1589, 1562, 1602, 1597, 1594, 1593, 1596, 1591, 1568, 1606, 1590, 1580, 1592, 1607, 1594, 1598, 1567, 1592, 1616, 1562, 1602, 1584, 1568, 1600, 1574, 1560, 1551, 1579, 1620, 1590, 1583, 1554, 1568, 1551, 1549, 1539, 1591, 1557, 1547, 1578, 1574, 1570, 1566, 1560, 1553, 1591, 1551, 1633, 1565, 1616, 1561, 1550, 1649, 1550, 1556, 1566, 1550, 1530, 1571, 1555, 1547, 1562, 1607, 1539, 1570, 1551, 1698, 1554, 1585, 1595, 1592, 1582, 1579, 1621, 1568, 1608, 1552, 1580, 1592, 1599, 1515, 1550, 1599, 1493, 1573, 1575, 1622, 1548, 1589, 1579, 1675, 1561, 1590, 1525, 1537, 1555, 1688, 1605, 1638, 1561, 1573, 1565, 1635, 1554, 1916, 1669, 1538, 1597, 1551, 1575, 1585, 1601, 1586, 1605, 1555, 1567, 1537, 1924, 1553, 1526, 1572, 1647, 1595, 1589, 1614, 1797, 1748, 1574, 1566, 1575, 1544, 1554, 1594, 1615, 1591, 1550, 1583, 1545, 1532, 1550, 1564, 1599, 1628, 1520, 1541, 1588, 1586, 1531, 1578, 1557, 1589, 1537, 1633, 1575, 1573, 1536, 1576, 1602, 1790, 1562, 1512, 1591, 1536, 1655, 1550, 1577, 1677, 1648, 1531, 1537, 1599, 1633, 1658, 1522, 1574, 1588, 1618, 1633, 1577, 1551, 1621, 1747, 1630, 1551, 1536, 1660, 1546, 1944, 1662, 1721, 1540, 1563, 1589, 1702, 1617, 1564, 1566, 1587, 1605, 1643, 1558, 1579, 1596, 1629, 1799, 1543, 1614, 1641, 1663, 1596, 1575, 1624, 1565, 1550, 1548, 1589, 1670, 1561, 1577, 1626, 1648, 1816, 1559, 1575, 1632, 1583, 1771, 1555, 1584, 1630, 1519, 1591, 1597, 1570, 1542, 1602, 1757, 1641, 1538, 1606, 1601, 1698, 1604, 1583, 1804, 1616, 1642, 1602, 1619, 1592, 1582, 1600, 1644, 1545, 1626, 1593, 1571, 1603, 1607, 1559, 1597, 1683, 1748, 1573, 1572, 1638, 1529, 1531, 1593, 1593, 1685, 1688, 1542, 1607, 1628, 1613, 1751],
      "WindowCenter": [603.0, 598.0, 595.0, 593.0, 594.0, 594.0, 594.0, 595.0, 594.0, 594.0, 598.0, 597.0, 596.0, 595.0, 595.0, 593.0, 593.0, 594.0, 594.0, 595.0, 595.0, 596.0, 594.0, 595.0, 597.0, 596.0, 595.0, 594.0, 595.0, 595.0, 596.0, 596.0, 596.0, 595.0, 594.0, 597.0, 598.0, 596.0, 596.0, 595.0, 596.0, 595.0, 597.0, 596.0, 596.0, 595.0, 596.0, 596.0, 596.0, 598.0, 597.0, 597.0, 596.0, 596.0, 597.0, 596.0, 597.0, 595.0, 595.0, 595.0, 595.0, 597.0, 598.0, 597.0, 598.0, 597.0, 597.0, 597.0, 597.0, 596.0, 597.0, 596.0, 597.0, 596.0, 598.0, 600.0, 599.0, 598.0, 597.0, 598.0, 598.0, 597.0, 596.0, 596.0, 597.0, 598.0, 598.0, 601.0, 599.0, 600.0, 597.0, 598.0, 598.0, 599.0, 598.0, 598.0, 599.0, 598.0, 598.0, 598.0, 599.0, 599.0, 600.0, 599.0, 599.0, 599.0, 598.0, 599.0, 600.0, 601.0, 599.0, 599.0, 600.0, 600.0, 598.0, 598.0, 598.0, 598.0, 598.0, 601.0, 600.0, 600.0, 601.0, 601.0, 600.0, 600.0, 599.0, 600.0, 597.0, 596.0, 598.0, 599.0, 600.0, 599.0, 600.0, 599.0, 599.0, 601.0, 601.0, 601.0, 603.0, 599.0, 599.0, 600.0, 601.0, 601.0, 601.0, 602.0, 602.0, 601.0, 599.0, 599.0, 599.0, 599.0, 601.0, 602.0, 601.0, 601.0, 600.0, 600.0, 601.0, 601.0, 601.0, 601.0, 601.0, 600.0, 599.0, 599.0, 601.0, 601.0, 601.0, 600.0, 600.0, 600.0, 600.0, 601.0, 600.0, 600.0, 600.0, 600.0, 601.0, 604.0, 601.0, 600.0, 601.0, 600.0, 601.0, 600.0, 600.0, 601.0, 601.0, 601.0, 601.0, 601.0, 601.0, 602.0, 601.0, 602.0, 603.0, 603.0, 602.0, 603.0, 603.0, 602.0, 603.0, 602.0, 603.0, 604.0, 605.0, 602.0, 605.0, 603.0, 603.0, 599.0, 601.0, 601.0, 603.0, 601.0, 600.0, 600.0, 601.0, 601.0, 602.0, 602.0, 601.0, 601.0, 601.0, 604.0, 601.0, 601.0, 602.0, 603.0, 602.0, 603.0, 603.0, 602.0, 602.0, 602.0, 602.0, 603.0, 602.0, 602.0, 603.0, 603.0, 605.0, 605.0, 603.0, 603.0, 602.0, 603.0, 602.0, 602.0, 602.0, 602.0, 602.0, 603.0, 603.0, 604.0, 604.0, 604.0, 602.0, 603.0, 604.0, 604.0, 604.0, 603.0, 604.0, 606.0, 604.0, 603.0, 602.0, 604.0, 603.0, 603.0, 603.0, 603.0, 602.0, 603.0, 603.0, 603.0, 604.0, 604.0, 604.0, 605.0, 606.0, 605.0, 603.0, 603.0, 603.0, 602.0, 603.0, 604.0, 604.0, 604.0, 603.0, 603.0, 603.0, 604.0, 604.0, 606.0],
      "WindowWidth": [1274.0, 1262.0, 1255.0, 1251.0, 1253.0, 1252.0, 1252.0, 1255.0, 1253.0, 1252.0, 1261.0, 1259.0, 1256.0, 1253.0, 1254.0, 1250.0, 1250.0, 1252.0, 1252.0, 1254.0, 1255.0, 1256.0, 1253.0, 1254.0, 1258.0, 1257.0, 1255.0, 1251.0, 1255.0, 1254.0, 1256.0, 1256.0, 1258.0, 1254.0, 1253.0, 1258.0, 1260.0, 1258.0, 1257.0, 1255.0, 1255.0, 1255.0, 1260.0, 1258.0, 1257.0, 1256.0, 1258.0, 1258.0, 1257.0, 1261.0, 1258.0, 1258.0, 1257.0, 1256.0, 1258.0, 1257.0, 1259.0, 1255.0, 1254.0, 1255.0, 1255.0, 1259.0, 1260.0, 1259.0, 1261.0, 1260.0, 1259.0, 1260.0, 1258.0, 1257.0, 1259.0, 1257.0, 1258.0, 1257.0, 1261.0, 1265.0, 1264.0, 1262.0, 1260.0, 1262.0, 1261.0, 1259.0, 1258.0, 1257.0, 1260.0, 1261.0, 1262.0, 1268.0, 1265.0, 1265.0, 1260.0, 1262.0, 1262.0, 1264.0, 1262.0, 1263.0, 1264.0, 1263.0, 1263.0, 1262.0, 1263.0, 1263.0, 1266.0, 1265.0, 1263.0, 1263.0, 1262.0, 1264.0, 1266.0, 1268.0, 1264.0, 1265.0, 1265.0, 1266.0, 1263.0, 1262.0, 1261.0, 1261.0, 1261.0, 1267.0, 1267.0, 1267.0, 1269.0, 1269.0, 1267.0, 1267.0, 1263.0, 1266.0, 1260.0, 1256.0, 1261.0, 1263.0, 1265.0, 1265.0, 1267.0, 1265.0, 1265.0, 1269.0, 1269.0, 1268.0, 1273.0, 1265.0, 1263.0, 1267.0, 1268.0, 1269.0, 1268.0, 1270.0, 1270.0, 1268.0, 1264.0, 1264.0, 1265.0, 1265.0, 1269.0, 1270.0, 1269.0, 1268.0, 1266.0, 1267.0, 1269.0, 1269.0, 1268.0, 1268.0, 1268.0, 1267.0, 1264.0, 1265.0, 1270.0, 1269.0, 1268.0, 1265.0, 1266.0, 1267.0, 1267.0, 1270.0, 1267.0, 1266.0, 1266.0, 1267.0, 1269.0, 1274.0, 1270.0, 1267.0, 1268.0, 1267.0, 1269.0, 1266.0, 1267.0, 1267.0, 1268.0, 1268.0, 1268.0, 1268.0, 1269.0, 1270.0, 1269.0, 1270.0, 1272.0, 1273.0, 1272.0, 1272.0, 1273.0, 1271.0, 1272.0, 1272.0, 1274.0, 1276.0, 1277.0, 1272.0, 1277.0, 1273.0, 1273.0, 1265.0, 1269.0, 1268.0, 1273.0, 1270.0, 1266.0, 1266.0, 1269.0, 1270.0, 1270.0, 1270.0, 1269.0, 1269.0, 1270.0, 1276.0, 1270.0, 1269.0, 1271.0, 1272.0, 1271.0, 1274.0, 1272.0, 1272.0, 1271.0, 1271.0, 1272.0, 1275.0, 1271.0, 1270.0, 1272.0, 1273.0, 1279.0, 1278.0, 1273.0, 1272.0, 1271.0, 1274.0, 1271.0, 1271.0, 1271.0, 1271.0, 1272.0, 1273.0, 1274.0, 1277.0, 1275.0, 1276.0, 1272.0, 1273.0, 1275.0, 1275.0, 1276.0, 1272.0, 1276.0, 1279.0, 1276.0, 1274.0, 1272.0, 1276.0, 1274.0, 1274.0, 1274.0, 1274.0, 1272.0, 1273.0, 1274.0, 1273.0, 1277.0, 1277.0, 1276.0, 1278.0, 1279.0, 1277.0, 1272.0, 1273.0, 1273.0, 1272.0, 1274.0, 1276.0, 1276.0, 1276.0, 1274.0, 1273.0, 1274.0, 1276.0, 1276.0, 1281.0]
    },
    "slices": {}
  }
}