{
  "AcquisitionMatrixPE": 74,
  "AcquisitionNumber": 1,
  "AcquisitionTime": "12:52:3.810000",
  "BandwidthPerPixelPhaseEncode": 27.579,
  "BaseResolution": 74,
  "BodyPartExamined": "HEAD",
  "CoilString": "t:HEA;HEP",
  "ConversionSoftware": "dcm2niix",
  "ConversionSoftwareVersion": "v1.0.20190410  GCC6.3.0",
  "DerivedVendorReportedEchoSpacing": 0.000489993,
  "DeviceSerialNumber": "35256",
  "DwellTime": 2.4e-06,
  "EchoTime": 0.03,
  "EffectiveEchoSpacing": 0.000489993,
  "FlipAngle": 70,
  "ImageOrientationPatientDICOM": [1, 0, 0, 0, 1, 0],
  "ImageType": [
    "ORIGINAL",
    "PRIMARY",
    "M",
    "ND",
    "NORM",
    "MOSAIC"
],
  "ImagingFrequency": 123.223,
  "InPlanePhaseEncodingDirectionDICOM": "COL",
  "InstitutionAddress": "East_Lee_St._2907_Greensboro_NC_US_27401",
  "InstitutionName": "JSNN",
  "InstitutionalDepartmentName": "Department",
  "MRAcquisitionType": "2D",
  "MagneticFieldStrength": 3,
  "Manufacturer": "Siemens",
  "ManufacturersModelName": "TrioTim",
  "Modality": "MR",
  "PartialFourier": 1,
  "PatientPosition": "HFS",
  "PercentPhaseFOV": 100,
  "PhaseEncodingDirection": "j-",
  "PhaseEncodingSteps": 74,
  "PhaseResolution": 1,
  "PixelBandwidth": 2815,
  "ProcedureStepDescription": "head_Cassidy",
  "ProtocolName": "RestingState",
  "PulseSequenceDetails": "%SiemensSeq%_ep2d_bold",
  "ReceiveCoilName": "HeadMatrix",
  "ReconMatrixPE": 74,
  "RepetitionTime": 2,
  "SAR": 0.125437,
  "ScanOptions": "FS",
  "ScanningSequence": "EP",
  "SequenceName": "_epfid2d1_74",
  "SequenceVariant": "SK",
  "SeriesDescription": "RestingState",
  "SeriesNumber": 3,
  "ShimSetting": [1331, 10518, -8739, 632, 6, -255, 115, 202],
  "SliceThickness": 4,
  "SliceTiming": [1.9425, 1.88, 1.8175, 1.755, 1.6925, 1.63, 1.5675, 1.505, 1.4425, 1.38, 1.3175, 1.2525, 1.19, 1.1275, 1.065, 1.0025, 0.94, 0.8775, 0.815, 0.7525, 0.69, 0.6275, 0.5625, 0.5, 0.4375, 0.375, 0.3125, 0.25, 0.1875, 0.125, 0.0625, 0],
  "SoftwareVersions": "syngo_MR_B19",
  "SpacingBetweenSlices": 4,
  "StationName": "JSNNMRI",
  "TaskName": "rest",
  "TotalReadoutTime": 0.0357695,
  "TxRefAmp": 260.21,
  "dcmmeta_affine": [
    [-2.972972869873047, 0.0, 0.0, 105.18071746826172],
    [0.0, 2.972972869873047, 0.0, -101.95423889160156],
    [0.0, 0.0, 4.0, -59.581085205078125],
    [0.0, 0.0, 0.0, 1.0]
],
  "dcmmeta_reorient_transform": [
    [0.0, -1.0, 0.0, 73.0],
    [1.0, 0.0, 0.0, 0.0],
    [0.0, 0.0, 1.0, 0.0],
    [0.0, 0.0, 0.0, 1.0]
],
  "dcmmeta_shape": [74, 74, 32, 300],
  "dcmmeta_slice_dim": 2,
  "dcmmeta_version": 0.6,
  "global": {
    "const": {
      "AcquisitionMatrix": [74, 0, 0, 74],
      "AngioFlag": "N",
      "BitsAllocated": 16,
      "BitsStored": 12,
      "BodyPartExamined": "HEAD",
      "Columns": 444,
      "EchoNumbers": 1,
      "EchoTime": 30.0,
      "EchoTrainLength": 1,
      "FlipAngle": 70.0,
      "HighBit": 11,
      "ImageOrientationPatient": [1.0, 0.0, 0.0, 0.0, 1.0, 0.0],
      "ImagePositionPatient": [-655.18069982529, -665.07276201248, -59.581085205078],
      "ImageType": [
        "ORIGINAL",
        "PRIMARY",
        "M",
        "ND",
        "NORM",
        "MOSAIC"
],
      "ImagedNucleus": "1H",
      "ImagingFrequency": 123.222696,
      "InPlanePhaseEncodingDirection": "COL",
      "MRAcquisitionType": "2D",
      "MagneticFieldStrength": 3.0,
      "Manufacturer": "SIEMENS",
      "ManufacturerModelName": "TrioTim",
      "Modality": "MR",
      "NumberOfAverages": 1.0,
      "NumberOfPhaseEncodingSteps": 74,
      "PercentPhaseFieldOfView": 100.0,
      "PercentSampling": 100.0,
      "PerformedProcedureStepStartTime": "124344.000000",
      "PhotometricInterpretation": "MONOCHROME2",
      "PixelBandwidth": 2815.0,
      "PixelRepresentation": 0,
      "PixelSpacing": [2.972972869873, 2.972972869873],
      "ProtocolName": "RestingState",
      "RepetitionTime": 2000.0,
      "Rows": 444,
      "SAR": 0.12543717074585,
      "SamplesPerPixel": 1,
      "ScanOptions": "FS",
      "ScanningSequence": "EP",
      "SequenceName": "*epfid2d1_74",
      "SequenceVariant": "SK",
      "SeriesDescription": "RestingState",
      "SeriesNumber": 3,
      "SeriesTime": "125300.406000",
      "SliceLocation": -59.581085205078,
      "SliceThickness": 4.0,
      "SmallestImagePixelValue": 0,
      "SoftwareVersions": "syngo MR B19",
      "SpacingBetweenSlices": 4.0,
      "SpecificCharacterSet": "ISO_IR 100",
      "StudyID": "1",
      "StudyTime": "124343.953000",
      "TransmitCoilName": "Body",
      "VariableFlipAngleFlag": "N",
      "WindowCenterWidthExplanation": "Algo1",
      "dBdt": 0.0},
    "slices": {}
  },
  "time": {
    "samples": {
      "AcquisitionNumber": [1, 2, 3, 4, 5, 6, 7, 8, 9, 10, 11, 12, 13, 14, 15, 16, 17, 18, 19, 20, 21, 22, 23, 24, 25, 26, 27, 28, 29, 30, 31, 32, 33, 34, 35, 36, 37, 38, 39, 40, 41, 42, 43, 44, 45, 46, 47, 48, 49, 50, 51, 52, 53, 54, 55, 56, 57, 58, 59, 60, 61, 62, 63, 64, 65, 66, 67, 68, 69, 70, 71, 72, 73, 74, 75, 76, 77, 78, 79, 80, 81, 82, 83, 84, 85, 86, 87, 88, 89, 90, 91, 92, 93, 94, 95, 96, 97, 98, 99, 100, 101, 102, 103, 104, 105, 106, 107, 108, 109, 110, 111, 112, 113, 114, 115, 116, 117, 118, 119, 120, 121, 122, 123, 124, 125, 126, 127, 128, 129, 130, 131, 132, 133, 134, 135, 136, 137, 138, 139, 140, 141, 142, 143, 144, 145, 146, 147, 148, 149, 150, 151, 152, 153, 154, 155, 156, 157, 158, 159, 160, 161, 162, 163, 164, 165, 166, 167, 168, 169, 170, 171, 172, 173, 174, 175, 176, 177, 178, 179, 180, 181, 182, 183, 184, 185, 186, 187, 188, 189, 190, 191, 192, 193, 194, 195, 196, 197, 198, 199, 200, 201, 202, 203, 204, 205, 206, 207, 208, 209, 210, 211, 212, 213, 214, 215, 216, 217, 218, 219, 220, 221, 222, 223, 224, 225, 226, 227, 228, 229, 230, 231, 232, 233, 234, 235, 236, 237, 238, 239, 240, 241, 242, 243, 244, 245, 246, 247, 248, 249, 250, 251, 252, 253, 254, 255, 256, 257, 258, 259, 260, 261, 262, 263, 264, 265, 266, 267, 268, 269, 270, 271, 272, 273, 274, 275, 276, 277, 278, 279, 280, 281, 282, 283, 284, 285, 286, 287, 288, 289, 290, 291, 292, 293, 294, 295, 296, 297, 298, 299, 300],
      "AcquisitionTime": ["125203.810000", "125205.820000", "125207.827500", "125209.835000", "125211.842500", "125213.852500", "125215.860000", "125217.867500", "125219.875000", "125221.882500", "125223.892500", "125225.900000", "125227.907500", "125229.915000", "125231.922500", "125233.932500", "125235.940000", "125237.947500", "125239.955000", "125241.965000", "125243.972500", "125245.980000", "125247.987500", "125249.995000", "125252.005000", "125254.012500", "125256.020000", "125258.027500", "125300.035000", "125302.045000", "125304.052500", "125306.060000", "125308.067500", "125310.075000", "125312.085000", "125314.092500", "125316.100000", "125318.107500", "125320.117500", "125322.125000", "125324.132500", "125326.140000", "125328.147500", "125330.157500", "125332.165000", "125334.172500", "125336.180000", "125338.187500", "125340.197500", "125342.205000", "125344.212500", "125346.220000", "125348.230000", "125350.237500", "125352.245000", "125354.252500", "125356.260000", "125358.270000", "125400.277500", "125402.285000", "125404.292500", "125406.300000", "125408.310000", "125410.317500", "125412.325000", "125414.332500", "125416.342500", "125418.350000", "125420.357500", "125422.365000", "125424.372500", "125426.382500", "125428.390000", "125430.397500", "125432.405000", "125434.412500", "125436.422500", "125438.430000", "125440.437500", "125442.445000", "125444.452500", "125446.462500", "125448.470000", "125450.477500", "125452.485000", "125454.495000", "125456.502500", "125458.510000", "125500.517500", "125502.525000", "125504.535000", "125506.542500", "125508.550000", "125510.557500", "125512.565000", "125514.575000", "125516.582500", "125518.590000", "125520.597500", "125522.607500", "125524.615000", "125526.622500", "125528.630000", "125530.637500", "125532.647500", "125534.655000", "125536.662500", "125538.670000", "125540.677500", "125542.687500", "125544.695000", "125546.702500", "125548.710000", "125550.720000", "125552.727500", "125554.735000", "125556.742500", "125558.750000", "125600.760000", "125602.767500", "125604.775000", "125606.782500", "125608.790000", "125610.800000", "125612.807500", "125614.815000", "125616.822500", "125618.830000", "125620.840000", "125622.847500", "125624.855000", "125626.862500", "125628.872500", "125630.880000", "125632.887500", "125634.895000", "125636.902500", "125638.912500", "125640.920000", "125642.927500", "125644.935000", "125646.942500", "125648.952500", "125650.960000", "125652.967500", "125654.975000", "125656.985000", "125658.992500", "125701.000000", "125703.007500", "125705.015000", "125707.025000", "125709.032500", "125711.040000", "125713.047500", "125715.055000", "125717.065000", "125719.072500", "125721.080000", "125723.087500", "125725.097500", "125727.105000", "125729.112500", "125731.120000", "125733.127500", "125735.137500", "125737.145000", "125739.152500", "125741.160000", "125743.167500", "125745.177500", "125747.185000", "125749.192500", "125751.200000", "125753.210000", "125755.217500", "125757.225000", "125759.232500", "125801.240000", "125803.250000", "125805.257500", "125807.265000", "125809.272500", "125811.280000", "125813.290000", "125815.297500", "125817.305000", "125819.312500", "125821.320000", "125823.330000", "125825.337500", "125827.345000", "125829.352500", "125831.362500", "125833.370000", "125835.377500", "125837.385000", "125839.392500", "125841.402500", "125843.410000", "125845.417500", "125847.425000", "125849.432500", "125851.442500", "125853.450000", "125855.457500", "125857.465000", "125859.475000", "125901.482500", "125903.490000", "125905.497500", "125907.505000", "125909.515000", "125911.522500", "125913.530000", "125915.537500", "125917.545000", "125919.555000", "125921.562500", "125923.570000", "125925.577500", "125927.587500", "125929.595000", "125931.602500", "125933.610000", "125935.617500", "125937.627500", "125939.635000", "125941.642500", "125943.650000", "125945.657500", "125947.667500", "125949.675000", "125951.682500", "125953.690000", "125955.697500", "125957.707500", "125959.715000", "130001.722500", "130003.730000", "130005.740000", "130007.747500", "130009.755000", "130011.762500", "130013.770000", "130015.780000", "130017.787500", "130019.795000", "130021.802500", "130023.810000", "130025.820000", "130027.827500", "130029.835000", "130031.842500", "130033.852500", "130035.860000", "130037.867500", "130039.875000", "130041.882500", "130043.892500", "130045.900000", "130047.907500", "130049.915000", "130051.922500", "130053.932500", "130055.940000", "130057.947500", "130059.955000", "130101.965000", "130103.972500", "130105.980000", "130107.987500", "130109.995000", "130112.005000", "130114.012500", "130116.020000", "130118.027500", "130120.035000", "130122.045000", "130124.052500", "130126.060000", "130128.067500", "130130.075000", "130132.085000", "130134.092500", "130136.100000", "130138.107500", "130140.117500", "130142.125000", "130144.132500", "130146.140000", "130148.147500", "130150.157500", "130152.165000", "130154.172500", "130156.180000", "130158.187500", "130200.197500", "130202.205000", "130204.212500"],
      "ContentTime": ["125300.406000", "125300.406000", "125300.406000", "125300.406000", "125300.406000", "125300.421000", "125300.421000", "125300.421000", "125300.421000", "125300.421000", "125300.421000", "125300.421000", "125300.421000", "125300.437000", "125300.437000", "125300.437000", "125300.437000", "125300.453000", "125300.453000", "125300.453000", "125300.453000", "125300.453000", "125300.453000", "125300.453000", "125300.453000", "125300.468000", "125300.468000", "125300.468000", "125340.406000", "125340.406000", "125340.406000", "125340.406000", "125340.406000", "125340.406000", "125340.406000", "125340.421000", "125340.421000", "125340.421000", "125340.421000", "125340.437000", "125340.437000", "125340.437000", "125340.437000", "125340.453000", "125340.453000", "125340.453000", "125340.453000", "125340.453000", "125420.406000", "125420.406000", "125420.406000", "125420.406000", "125420.406000", "125420.406000", "125420.406000", "125420.406000", "125420.421000", "125420.421000", "125420.421000", "125420.421000", "125420.421000", "125420.421000", "125420.421000", "125420.437000", "125420.437000", "125420.437000", "125420.437000", "125420.453000", "125500.406000", "125500.406000", "125500.406000", "125500.406000", "125500.406000", "125500.406000", "125500.421000", "125500.421000", "125500.421000", "125500.421000", "125500.421000", "125500.421000", "125500.437000", "125500.437000", "125500.437000", "125500.437000", "125500.437000", "125500.437000", "125500.437000", "125500.453000", "125540.406000", "125540.406000", "125540.406000", "125540.406000", "125540.406000", "125540.406000", "125540.406000", "125540.421000", "125540.421000", "125540.421000", "125540.421000", "125540.437000", "125540.437000", "125540.437000", "125540.437000", "125540.437000", "125540.437000", "125540.437000", "125540.453000", "125540.453000", "125620.406000", "125620.406000", "125620.406000", "125620.406000", "125620.406000", "125620.406000", "125620.406000", "125620.421000", "125620.421000", "125620.421000", "125620.421000", "125620.421000", "125620.421000", "125620.421000", "125620.421000", "125620.437000", "125620.437000", "125620.437000", "125620.437000", "125620.437000", "125640.406000", "125640.406000", "125640.406000", "125640.406000", "125640.406000", "125640.406000", "125640.406000", "125640.406000", "125640.421000", "125640.421000", "125720.406000", "125720.406000", "125720.406000", "125720.406000", "125720.406000", "125720.406000", "125720.406000", "125720.421000", "125720.421000", "125720.421000", "125720.421000", "125720.421000", "125720.421000", "125720.421000", "125720.421000", "125720.437000", "125720.437000", "125720.437000", "125720.437000", "125720.437000", "125800.406000", "125800.406000", "125800.406000", "125800.421000", "125800.421000", "125800.421000", "125800.421000", "125800.421000", "125800.437000", "125800.453000", "125800.453000", "125800.468000", "125800.468000", "125800.468000", "125800.468000", "125800.468000", "125800.468000", "125800.468000", "125800.468000", "125800.484000", "125840.406000", "125840.406000", "125840.406000", "125840.406000", "125840.406000", "125840.406000", "125840.421000", "125840.421000", "125840.421000", "125840.421000", "125840.437000", "125840.437000", "125840.437000", "125840.437000", "125840.437000", "125840.437000", "125840.453000", "125840.453000", "125840.453000", "125840.453000", "125920.406000", "125920.406000", "125920.406000", "125920.421000", "125920.421000", "125920.421000", "125920.421000", "125920.421000", "125920.421000", "125920.421000", "125920.421000", "125920.437000", "125920.437000", "125920.437000", "125920.437000", "125920.437000", "125920.437000", "125920.437000", "125920.437000", "125920.453000", "130000.406000", "130000.406000", "130000.406000", "130000.406000", "130000.406000", "130000.406000", "130000.406000", "130000.421000", "130000.421000", "130000.421000", "130000.421000", "130000.421000", "130000.421000", "130000.421000", "130000.421000", "130000.437000", "130000.437000", "130000.437000", "130000.437000", "130000.437000", "130040.406000", "130040.406000", "130040.406000", "130040.406000", "130040.406000", "130040.406000", "130040.406000", "130040.421000", "130040.421000", "130040.421000", "130040.421000", "130040.421000", "130040.421000", "130040.421000", "130040.421000", "130040.437000", "130040.437000", "130040.437000", "130040.437000", "130040.453000", "130120.406000", "130120.406000", "130120.406000", "130120.406000", "130120.406000", "130120.406000", "130120.406000", "130120.406000", "130120.421000", "130120.421000", "130120.421000", "130120.421000", "130120.421000", "130120.421000", "130120.421000", "130120.437000", "130120.437000", "130120.453000", "130120.453000", "130120.453000", "130200.406000", "130200.406000", "130200.421000", "130200.421000", "130200.421000", "130200.421000", "130200.421000", "130200.421000", "130200.421000", "130200.421000", "130200.437000", "130200.437000", "130200.437000", "130200.437000", "130200.437000", "130200.437000", "130200.437000", "130200.453000", "130200.453000", "130200.453000", "130202.671000", "130202.687000"],
      "InstanceCreationTime": ["125300.406000", "125300.406000", "125300.406000", "125300.406000", "125300.406000", "125300.421000", "125300.421000", "125300.421000", "125300.421000", "125300.421000", "125300.421000", "125300.421000", "125300.421000", "125300.437000", "125300.437000", "125300.437000", "125300.437000", "125300.453000", "125300.453000", "125300.453000", "125300.453000", "125300.453000", "125300.453000", "125300.453000", "125300.453000", "125300.468000", "125300.468000", "125300.468000", "125340.406000", "125340.406000", "125340.406000", "125340.406000", "125340.406000", "125340.406000", "125340.406000", "125340.421000", "125340.421000", "125340.421000", "125340.421000", "125340.437000", "125340.437000", "125340.437000", "125340.437000", "125340.453000", "125340.453000", "125340.453000", "125340.453000", "125340.453000", "125420.406000", "125420.406000", "125420.406000", "125420.406000", "125420.406000", "125420.406000", "125420.406000", "125420.406000", "125420.421000", "125420.421000", "125420.421000", "125420.421000", "125420.421000", "125420.421000", "125420.421000", "125420.437000", "125420.437000", "125420.437000", "125420.437000", "125420.453000", "125500.406000", "125500.406000", "125500.406000", "125500.406000", "125500.406000", "125500.406000", "125500.421000", "125500.421000", "125500.421000", "125500.421000", "125500.421000", "125500.421000", "125500.437000", "125500.437000", "125500.437000", "125500.437000", "125500.437000", "125500.437000", "125500.437000", "125500.453000", "125540.406000", "125540.406000", "125540.406000", "125540.406000", "125540.406000", "125540.406000", "125540.406000", "125540.421000", "125540.421000", "125540.421000", "125540.421000", "125540.437000", "125540.437000", "125540.437000", "125540.437000", "125540.437000", "125540.437000", "125540.437000", "125540.453000", "125540.453000", "125620.406000", "125620.406000", "125620.406000", "125620.406000", "125620.406000", "125620.406000", "125620.406000", "125620.421000", "125620.421000", "125620.421000", "125620.421000", "125620.421000", "125620.421000", "125620.421000", "125620.421000", "125620.437000", "125620.437000", "125620.437000", "125620.437000", "125620.437000", "125640.406000", "125640.406000", "125640.406000", "125640.406000", "125640.406000", "125640.406000", "125640.406000", "125640.406000", "125640.421000", "125640.421000", "125720.406000", "125720.406000", "125720.406000", "125720.406000", "125720.406000", "125720.406000", "125720.406000", "125720.421000", "125720.421000", "125720.421000", "125720.421000", "125720.421000", "125720.421000", "125720.421000", "125720.421000", "125720.437000", "125720.437000", "125720.437000", "125720.437000", "125720.437000", "125800.406000", "125800.406000", "125800.406000", "125800.421000", "125800.421000", "125800.421000", "125800.421000", "125800.421000", "125800.437000", "125800.453000", "125800.453000", "125800.468000", "125800.468000", "125800.468000", "125800.468000", "125800.468000", "125800.468000", "125800.468000", "125800.468000", "125800.484000", "125840.406000", "125840.406000", "125840.406000", "125840.406000", "125840.406000", "125840.406000", "125840.421000", "125840.421000", "125840.421000", "125840.421000", "125840.437000", "125840.437000", "125840.437000", "125840.437000", "125840.437000", "125840.437000", "125840.453000", "125840.453000", "125840.453000", "125840.453000", "125920.406000", "125920.406000", "125920.406000", "125920.421000", "125920.421000", "125920.421000", "125920.421000", "125920.421000", "125920.421000", "125920.421000", "125920.421000", "125920.437000", "125920.437000", "125920.437000", "125920.437000", "125920.437000", "125920.437000", "125920.437000", "125920.437000", "125920.453000", "130000.406000", "130000.406000", "130000.406000", "130000.406000", "130000.406000", "130000.406000", "130000.406000", "130000.421000", "130000.421000", "130000.421000", "130000.421000", "130000.421000", "130000.421000", "130000.421000", "130000.421000", "130000.437000", "130000.437000", "130000.437000", "130000.437000", "130000.437000", "130040.406000", "130040.406000", "130040.406000", "130040.406000", "130040.406000", "130040.406000", "130040.406000", "130040.421000", "130040.421000", "130040.421000", "130040.421000", "130040.421000", "130040.421000", "130040.421000", "130040.421000", "130040.437000", "130040.437000", "130040.437000", "130040.437000", "130040.453000", "130120.406000", "130120.406000", "130120.406000", "130120.406000", "130120.406000", "130120.406000", "130120.406000", "130120.406000", "130120.421000", "130120.421000", "130120.421000", "130120.421000", "130120.421000", "130120.421000", "130120.421000", "130120.437000", "130120.437000", "130120.453000", "130120.453000", "130120.453000", "130200.406000", "130200.406000", "130200.421000", "130200.421000", "130200.421000", "130200.421000", "130200.421000", "130200.421000", "130200.421000", "130200.421000", "130200.437000", "130200.437000", "130200.437000", "130200.437000", "130200.437000", "130200.437000", "130200.437000", "130200.453000", "130200.453000", "130200.453000", "130202.671000", "130202.687000"],
      "InstanceNumber": [1, 2, 3, 4, 5, 6, 7, 8, 9, 10, 11, 12, 13, 14, 15, 16, 17, 18, 19, 20, 21, 22, 23, 24, 25, 26, 27, 28, 29, 30, 31, 32, 33, 34, 35, 36, 37, 38, 39, 40, 41, 42, 43, 44, 45, 46, 47, 48, 49, 50, 51, 52, 53, 54, 55, 56, 57, 58, 59, 60, 61, 62, 63, 64, 65, 66, 67, 68, 69, 70, 71, 72, 73, 74, 75, 76, 77, 78, 79, 80, 81, 82, 83, 84, 85, 86, 87, 88, 89, 90, 91, 92, 93, 94, 95, 96, 97, 98, 99, 100, 101, 102, 103, 104, 105, 106, 107, 108, 109, 110, 111, 112, 113, 114, 115, 116, 117, 118, 119, 120, 121, 122, 123, 124, 125, 126, 127, 128, 129, 130, 131, 132, 133, 134, 135, 136, 137, 138, 139, 140, 141, 142, 143, 144, 145, 146, 147, 148, 149, 150, 151, 152, 153, 154, 155, 156, 157, 158, 159, 160, 161, 162, 163, 164, 165, 166, 167, 168, 169, 170, 171, 172, 173, 174, 175, 176, 177, 178, 179, 180, 181, 182, 183, 184, 185, 186, 187, 188, 189, 190, 191, 192, 193, 194, 195, 196, 197, 198, 199, 200, 201, 202, 203, 204, 205, 206, 207, 208, 209, 210, 211, 212, 213, 214, 215, 216, 217, 218, 219, 220, 221, 222, 223, 224, 225, 226, 227, 228, 229, 230, 231, 232, 233, 234, 235, 236, 237, 238, 239, 240, 241, 242, 243, 244, 245, 246, 247, 248, 249, 250, 251, 252, 253, 254, 255, 256, 257, 258, 259, 260, 261, 262, 263, 264, 265, 266, 267, 268, 269, 270, 271, 272, 273, 274, 275, 276, 277, 278, 279, 280, 281, 282, 283, 284, 285, 286, 287, 288, 289, 290, 291, 292, 293, 294, 295, 296, 297, 298, 299, 300],
      "LargestImagePixelValue": [1789, 2114, 2007, 2040, 1577, 1820, 1618, 2014, 2240, 1804, 1578, 1788, 1578, 1987, 1956, 1634, 1559, 1874, 2083, 1573, 1617, 1913, 2301, 1550, 1849, 2090, 2346, 1630, 1578, 1927, 2364, 1614, 1573, 2029, 1964, 1595, 1576, 2259, 1892, 1563, 1622, 1888, 1963, 1554, 1857, 1986, 2227, 1601, 1569, 2238, 1999, 1535, 1797, 2048, 2237, 1645, 1555, 1829, 1773, 2153, 2030, 1586, 1626, 1654, 2261, 1939, 1702, 1583, 1788, 2017, 2040, 2142, 1934, 1604, 1564, 1669, 1806, 1923, 2296, 1908, 1689, 1597, 2044, 2203, 2058, 1662, 1715, 2272, 1587, 1583, 1904, 2060, 2167, 1593, 1700, 2002, 2188, 1925, 1568, 1737, 1596, 2238, 2198, 1850, 1563, 1674, 1961, 2098, 2124, 1594, 1903, 2225, 1836, 1590, 2289, 1641, 1909, 2171, 1631, 1619, 2191, 2044, 1611, 2035, 2028, 1586, 1914, 2095, 1643, 1694, 2015, 2243, 2215, 1875, 1635, 1882, 1941, 1977, 1905, 1654, 1804, 1856, 2023, 2356, 2127, 1868, 1592, 1951, 2318, 2299, 2080, 1602, 1843, 1832, 2336, 1735, 1692, 2290, 1568, 1649, 2050, 2261, 1628, 1639, 2131, 2165, 2311, 1551, 1736, 2026, 2431, 1851, 1718, 2179, 2059, 1648, 1800, 2340, 1697, 1624, 2033, 2274, 1673, 1696, 1969, 1946, 2184, 1824, 1635, 1915, 1937, 1985, 1663, 2187, 2320, 2300, 1635, 2248, 1601, 1939, 2111, 2640, 1821, 1635, 1674, 1937, 1678, 1708, 2081, 1697, 1683, 1775, 1796, 2119, 1979, 1649, 1837, 2069, 1908, 1668, 1972, 2202, 2350, 1648, 1721, 1907, 2425, 1968, 1614, 1873, 2221, 1989, 1647, 2148, 2318, 1601, 1623, 1721, 1979, 2173, 2172, 1714, 1629, 1716, 1998, 2091, 1697, 1643, 1890, 2113, 2188, 1845, 1639, 1683, 1923, 2068, 2323, 1820, 1755, 1676, 2272, 2427, 2351, 1593, 1754, 1885, 1833, 1674, 1962, 2082, 2209, 2322, 1650, 1653, 1630, 2035, 2042, 1824, 1626, 1854, 2197, 1760, 1657, 1940, 1862, 1670, 1739, 2348, 1783, 1642, 2040, 1810, 1627, 1953, 1695, 2292, 1642, 1950, 1910, 2702],
      "WindowCenter": [626.0, 625.0, 622.0, 623.0, 620.0, 622.0, 621.0, 624.0, 625.0, 621.0, 620.0, 621.0, 620.0, 623.0, 622.0, 622.0, 622.0, 624.0, 625.0, 624.0, 624.0, 625.0, 626.0, 623.0, 625.0, 626.0, 627.0, 622.0, 623.0, 624.0, 627.0, 622.0, 622.0, 624.0, 624.0, 622.0, 622.0, 626.0, 624.0, 623.0, 623.0, 625.0, 626.0, 625.0, 627.0, 627.0, 628.0, 625.0, 625.0, 629.0, 627.0, 624.0, 626.0, 627.0, 628.0, 624.0, 625.0, 626.0, 625.0, 628.0, 627.0, 625.0, 626.0, 625.0, 628.0, 627.0, 626.0, 623.0, 625.0, 626.0, 626.0, 626.0, 625.0, 625.0, 626.0, 627.0, 627.0, 628.0, 630.0, 628.0, 628.0, 626.0, 628.0, 627.0, 627.0, 624.0, 624.0, 627.0, 624.0, 625.0, 626.0, 627.0, 629.0, 625.0, 626.0, 628.0, 629.0, 628.0, 626.0, 626.0, 626.0, 630.0, 629.0, 628.0, 626.0, 627.0, 627.0, 628.0, 629.0, 626.0, 629.0, 631.0, 629.0, 627.0, 631.0, 628.0, 629.0, 630.0, 627.0, 627.0, 630.0, 629.0, 627.0, 630.0, 631.0, 628.0, 630.0, 630.0, 629.0, 630.0, 631.0, 631.0, 630.0, 629.0, 628.0, 629.0, 628.0, 628.0, 628.0, 628.0, 631.0, 630.0, 630.0, 632.0, 631.0, 631.0, 628.0, 630.0, 632.0, 632.0, 631.0, 627.0, 628.0, 628.0, 630.0, 627.0, 627.0, 630.0, 627.0, 628.0, 630.0, 631.0, 628.0, 628.0, 631.0, 632.0, 633.0, 629.0, 632.0, 634.0, 636.0, 632.0, 631.0, 633.0, 632.0, 629.0, 629.0, 633.0, 629.0, 629.0, 631.0, 631.0, 629.0, 629.0, 630.0, 629.0, 632.0, 631.0, 632.0, 632.0, 632.0, 633.0, 632.0, 635.0, 634.0, 633.0, 628.0, 632.0, 628.0, 631.0, 631.0, 632.0, 628.0, 627.0, 628.0, 631.0, 630.0, 630.0, 632.0, 630.0, 631.0, 632.0, 632.0, 633.0, 633.0, 632.0, 634.0, 635.0, 634.0, 633.0, 635.0, 636.0, 635.0, 632.0, 632.0, 632.0, 634.0, 632.0, 630.0, 631.0, 632.0, 632.0, 630.0, 632.0, 633.0, 630.0, 630.0, 630.0, 632.0, 633.0, 633.0, 631.0, 630.0, 630.0, 631.0, 631.0, 630.0, 630.0, 632.0, 633.0, 634.0, 633.0, 632.0, 634.0, 635.0, 637.0, 638.0, 635.0, 635.0, 634.0, 636.0, 635.0, 635.0, 630.0, 630.0, 631.0, 630.0, 629.0, 632.0, 633.0, 633.0, 634.0, 631.0, 631.0, 631.0, 634.0, 633.0, 633.0, 631.0, 633.0, 634.0, 633.0, 633.0, 634.0, 635.0, 634.0, 634.0, 637.0, 634.0, 633.0, 636.0, 634.0, 633.0, 635.0, 633.0, 636.0, 633.0, 634.0, 632.0, 635.0],
      "WindowWidth": [1316.0, 1313.0, 1307.0, 1308.0, 1303.0, 1306.0, 1304.0, 1310.0, 1312.0, 1305.0, 1303.0, 1304.0, 1301.0, 1308.0, 1307.0, 1307.0, 1306.0, 1312.0, 1313.0, 1311.0, 1311.0, 1313.0, 1315.0, 1308.0, 1313.0, 1314.0, 1317.0, 1308.0, 1309.0, 1311.0, 1316.0, 1307.0, 1307.0, 1311.0, 1312.0, 1307.0, 1306.0, 1315.0, 1311.0, 1309.0, 1309.0, 1312.0, 1316.0, 1312.0, 1317.0, 1317.0, 1319.0, 1313.0, 1313.0, 1321.0, 1318.0, 1312.0, 1314.0, 1317.0, 1318.0, 1312.0, 1313.0, 1314.0, 1313.0, 1319.0, 1318.0, 1314.0, 1314.0, 1314.0, 1320.0, 1318.0, 1315.0, 1310.0, 1312.0, 1315.0, 1315.0, 1316.0, 1314.0, 1313.0, 1315.0, 1319.0, 1319.0, 1319.0, 1323.0, 1320.0, 1320.0, 1316.0, 1320.0, 1318.0, 1318.0, 1312.0, 1311.0, 1316.0, 1311.0, 1314.0, 1316.0, 1318.0, 1321.0, 1314.0, 1316.0, 1319.0, 1323.0, 1320.0, 1316.0, 1317.0, 1315.0, 1323.0, 1322.0, 1319.0, 1315.0, 1317.0, 1319.0, 1320.0, 1321.0, 1316.0, 1323.0, 1325.0, 1322.0, 1318.0, 1326.0, 1319.0, 1323.0, 1323.0, 1318.0, 1318.0, 1324.0, 1323.0, 1317.0, 1325.0, 1325.0, 1321.0, 1324.0, 1324.0, 1322.0, 1324.0, 1326.0, 1327.0, 1324.0, 1321.0, 1319.0, 1322.0, 1320.0, 1319.0, 1321.0, 1321.0, 1327.0, 1325.0, 1325.0, 1328.0, 1326.0, 1326.0, 1321.0, 1325.0, 1329.0, 1328.0, 1325.0, 1318.0, 1321.0, 1319.0, 1323.0, 1319.0, 1318.0, 1323.0, 1317.0, 1320.0, 1324.0, 1327.0, 1319.0, 1320.0, 1327.0, 1328.0, 1330.0, 1322.0, 1329.0, 1332.0, 1337.0, 1328.0, 1328.0, 1330.0, 1328.0, 1323.0, 1323.0, 1330.0, 1323.0, 1323.0, 1326.0, 1327.0, 1322.0, 1322.0, 1324.0, 1323.0, 1327.0, 1326.0, 1328.0, 1330.0, 1328.0, 1330.0, 1330.0, 1335.0, 1332.0, 1331.0, 1321.0, 1328.0, 1320.0, 1327.0, 1327.0, 1329.0, 1320.0, 1319.0, 1321.0, 1327.0, 1324.0, 1324.0, 1328.0, 1324.0, 1328.0, 1328.0, 1328.0, 1332.0, 1331.0, 1330.0, 1334.0, 1335.0, 1334.0, 1332.0, 1336.0, 1338.0, 1335.0, 1330.0, 1329.0, 1329.0, 1333.0, 1328.0, 1325.0, 1326.0, 1330.0, 1328.0, 1324.0, 1329.0, 1330.0, 1324.0, 1324.0, 1326.0, 1328.0, 1330.0, 1330.0, 1328.0, 1325.0, 1324.0, 1326.0, 1326.0, 1326.0, 1325.0, 1329.0, 1331.0, 1332.0, 1330.0, 1329.0, 1333.0, 1336.0, 1340.0, 1341.0, 1336.0, 1336.0, 1334.0, 1338.0, 1335.0, 1335.0, 1324.0, 1326.0, 1326.0, 1324.0, 1324.0, 1329.0, 1331.0, 1332.0, 1334.0, 1326.0, 1327.0, 1326.0, 1332.0, 1330.0, 1331.0, 1328.0, 1331.0, 1334.0, 1332.0, 1332.0, 1334.0, 1334.0, 1333.0, 1333.0, 1340.0, 1334.0, 1332.0, 1337.0, 1334.0, 1332.0, 1336.0, 1332.0, 1338.0, 1332.0, 1334.0, 1330.0, 1336.0]
    },
    "slices": {}
  }
}