{
  "AcquisitionMatrixPE": 74,
  "AcquisitionNumber": 1,
  "AcquisitionTime": "11:59:43.222500",
  "BandwidthPerPixelPhaseEncode": 27.579,
  "BaseResolution": 74,
  "BodyPartExamined": "HEAD",
  "CoilString": "t:HEA;HEP",
  "ConversionSoftware": "dcm2niix",
  "ConversionSoftwareVersion": "v1.0.20190410  GCC6.3.0",
  "DerivedVendorReportedEchoSpacing": 0.000489993,
  "DeviceSerialNumber": "35256",
  "DwellTime": 2.4e-06,
  "EchoTime": 0.03,
  "EffectiveEchoSpacing": 0.000489993,
  "FlipAngle": 70,
  "ImageOrientationPatientDICOM": [1, 0, 0, 0, 1, 0],
  "ImageType": [
    "ORIGINAL",
    "PRIMARY",
    "M",
    "ND",
    "NORM",
    "MOSAIC"
],
  "ImagingFrequency": 123.223,
  "InPlanePhaseEncodingDirectionDICOM": "COL",
  "InstitutionAddress": "East_Lee_St._2907_Greensboro_NC_US_27401",
  "InstitutionName": "JSNN",
  "InstitutionalDepartmentName": "Department",
  "MRAcquisitionType": "2D",
  "MagneticFieldStrength": 3,
  "Manufacturer": "Siemens",
  "ManufacturersModelName": "TrioTim",
  "Modality": "MR",
  "PartialFourier": 1,
  "PatientPosition": "HFS",
  "PercentPhaseFOV": 100,
  "PhaseEncodingDirection": "j-",
  "PhaseEncodingSteps": 74,
  "PhaseResolution": 1,
  "PixelBandwidth": 2815,
  "ProcedureStepDescription": "head_Cassidy",
  "ProtocolName": "RestingState",
  "PulseSequenceDetails": "%SiemensSeq%_ep2d_bold",
  "ReceiveCoilName": "HeadMatrix",
  "ReconMatrixPE": 74,
  "RepetitionTime": 2,
  "SAR": 0.135799,
  "ScanOptions": "FS",
  "ScanningSequence": "EP",
  "SequenceName": "_epfid2d1_74",
  "SequenceVariant": "SK",
  "SeriesDescription": "RestingState",
  "SeriesNumber": 3,
  "ShimSetting": [1368, 10488, -8664, 748, 82, -553, 279, -34],
  "SliceThickness": 4,
  "SliceTiming": [1.945, 1.8825, 1.82, 1.7575, 1.695, 1.6325, 1.57, 1.5075, 1.4425, 1.38, 1.3175, 1.255, 1.1925, 1.13, 1.0675, 1.005, 0.9425, 0.88, 0.815, 0.7525, 0.69, 0.6275, 0.565, 0.5025, 0.44, 0.3775, 0.315, 0.2525, 0.19, 0.125, 0.0625, 0],
  "SoftwareVersions": "syngo_MR_B19",
  "SpacingBetweenSlices": 4,
  "StationName": "JSNNMRI",
  "TaskName": "rest",
  "TotalReadoutTime": 0.0357695,
  "TxRefAmp": 303.422,
  "dcmmeta_affine": [
    [-2.972972869873047, 0.0, 0.0, 105.18071746826172],
    [0.0, 2.972972869873047, 0.0, -92.36678314208984],
    [0.0, 0.0, 4.0, -52.934940338134766],
    [0.0, 0.0, 0.0, 1.0]
],
  "dcmmeta_reorient_transform": [
    [0.0, -1.0, 0.0, 73.0],
    [1.0, 0.0, 0.0, 0.0],
    [0.0, 0.0, 1.0, 0.0],
    [0.0, 0.0, 0.0, 1.0]
],
  "dcmmeta_shape": [74, 74, 32, 300],
  "dcmmeta_slice_dim": 2,
  "dcmmeta_version": 0.6,
  "global": {
    "const": {
      "AcquisitionMatrix": [74, 0, 0, 74],
      "AngioFlag": "N",
      "BitsAllocated": 16,
      "BitsStored": 12,
      "BodyPartExamined": "HEAD",
      "Columns": 444,
      "EchoNumbers": 1,
      "EchoTime": 30.0,
      "EchoTrainLength": 1,
      "FlipAngle": 70.0,
      "HighBit": 11,
      "ImageOrientationPatient": [1.0, 0.0, 0.0, 0.0, 1.0, 0.0],
      "ImagePositionPatient": [-655.18069982529, -674.66021823883, -52.934940338135],
      "ImageType": [
        "ORIGINAL",
        "PRIMARY",
        "M",
        "ND",
        "NORM",
        "MOSAIC"
],
      "ImagedNucleus": "1H",
      "ImagingFrequency": 123.223073,
      "InPlanePhaseEncodingDirection": "COL",
      "MRAcquisitionType": "2D",
      "MagneticFieldStrength": 3.0,
      "Manufacturer": "SIEMENS",
      "ManufacturerModelName": "TrioTim",
      "Modality": "MR",
      "NumberOfAverages": 1.0,
      "NumberOfPhaseEncodingSteps": 74,
      "PercentPhaseFieldOfView": 100.0,
      "PercentSampling": 100.0,
      "PerformedProcedureStepStartTime": "105854.830000",
      "PhotometricInterpretation": "MONOCHROME2",
      "PixelBandwidth": 2815.0,
      "PixelRepresentation": 0,
      "PixelSpacing": [2.972972869873, 2.972972869873],
      "ProtocolName": "RestingState",
      "RepetitionTime": 2000.0,
      "Rows": 444,
      "SAR": 0.13579856036987,
      "SamplesPerPixel": 1,
      "ScanOptions": "FS",
      "ScanningSequence": "EP",
      "SequenceName": "*epfid2d1_74",
      "SequenceVariant": "SK",
      "SeriesDescription": "RestingState",
      "SeriesNumber": 3,
      "SeriesTime": "120038.847000",
      "SliceLocation": -52.934940338135,
      "SliceThickness": 4.0,
      "SmallestImagePixelValue": 0,
      "SoftwareVersions": "syngo MR B19",
      "SpacingBetweenSlices": 4.0000001230548,
      "SpecificCharacterSet": "ISO_IR 100",
      "StudyID": "1",
      "StudyTime": "105854.742000",
      "TransmitCoilName": "Body",
      "VariableFlipAngleFlag": "N",
      "WindowCenterWidthExplanation": "Algo1",
      "dBdt": 0.0},
    "slices": {}
  },
  "time": {
    "samples": {
      "AcquisitionNumber": [1, 2, 3, 4, 5, 6, 7, 8, 9, 10, 11, 12, 13, 14, 15, 16, 17, 18, 19, 20, 21, 22, 23, 24, 25, 26, 27, 28, 29, 30, 31, 32, 33, 34, 35, 36, 37, 38, 39, 40, 41, 42, 43, 44, 45, 46, 47, 48, 49, 50, 51, 52, 53, 54, 55, 56, 57, 58, 59, 60, 61, 62, 63, 64, 65, 66, 67, 68, 69, 70, 71, 72, 73, 74, 75, 76, 77, 78, 79, 80, 81, 82, 83, 84, 85, 86, 87, 88, 89, 90, 91, 92, 93, 94, 95, 96, 97, 98, 99, 100, 101, 102, 103, 104, 105, 106, 107, 108, 109, 110, 111, 112, 113, 114, 115, 116, 117, 118, 119, 120, 121, 122, 123, 124, 125, 126, 127, 128, 129, 130, 131, 132, 133, 134, 135, 136, 137, 138, 139, 140, 141, 142, 143, 144, 145, 146, 147, 148, 149, 150, 151, 152, 153, 154, 155, 156, 157, 158, 159, 160, 161, 162, 163, 164, 165, 166, 167, 168, 169, 170, 171, 172, 173, 174, 175, 176, 177, 178, 179, 180, 181, 182, 183, 184, 185, 186, 187, 188, 189, 190, 191, 192, 193, 194, 195, 196, 197, 198, 199, 200, 201, 202, 203, 204, 205, 206, 207, 208, 209, 210, 211, 212, 213, 214, 215, 216, 217, 218, 219, 220, 221, 222, 223, 224, 225, 226, 227, 228, 229, 230, 231, 232, 233, 234, 235, 236, 237, 238, 239, 240, 241, 242, 243, 244, 245, 246, 247, 248, 249, 250, 251, 252, 253, 254, 255, 256, 257, 258, 259, 260, 261, 262, 263, 264, 265, 266, 267, 268, 269, 270, 271, 272, 273, 274, 275, 276, 277, 278, 279, 280, 281, 282, 283, 284, 285, 286, 287, 288, 289, 290, 291, 292, 293, 294, 295, 296, 297, 298, 299, 300],
      "AcquisitionTime": ["115943.222500", "115945.230000", "115947.240000", "115949.247500", "115951.255000", "115953.262500", "115955.270000", "115957.280000", "115959.287500", "120001.295000", "120003.302500", "120005.310000", "120007.320000", "120009.327500", "120011.335000", "120013.342500", "120015.352500", "120017.360000", "120019.367500", "120021.375000", "120023.382500", "120025.392500", "120027.400000", "120029.407500", "120031.415000", "120033.422500", "120035.432500", "120037.440000", "120039.447500", "120041.455000", "120043.465000", "120045.472500", "120047.480000", "120049.487500", "120051.495000", "120053.505000", "120055.512500", "120057.520000", "120059.527500", "120101.535000", "120103.545000", "120105.552500", "120107.560000", "120109.567500", "120111.577500", "120113.585000", "120115.592500", "120117.600000", "120119.607500", "120121.617500", "120123.625000", "120125.632500", "120127.640000", "120129.647500", "120131.657500", "120133.665000", "120135.672500", "120137.680000", "120139.690000", "120141.697500", "120143.705000", "120145.712500", "120147.720000", "120149.730000", "120151.737500", "120153.745000", "120155.752500", "120157.760000", "120159.770000", "120201.777500", "120203.785000", "120205.792500", "120207.800000", "120209.810000", "120211.817500", "120213.825000", "120215.832500", "120217.842500", "120219.850000", "120221.857500", "120223.865000", "120225.872500", "120227.882500", "120229.890000", "120231.897500", "120233.905000", "120235.912500", "120237.922500", "120239.930000", "120241.937500", "120243.945000", "120245.955000", "120247.962500", "120249.970000", "120251.977500", "120253.985000", "120255.995000", "120258.002500", "120300.010000", "120302.017500", "120304.025000", "120306.035000", "120308.042500", "120310.050000", "120312.057500", "120314.067500", "120316.075000", "120318.082500", "120320.090000", "120322.097500", "120324.107500", "120326.115000", "120328.122500", "120330.130000", "120332.137500", "120334.147500", "120336.155000", "120338.162500", "120340.170000", "120342.177500", "120344.187500", "120346.195000", "120348.202500", "120350.210000", "120352.220000", "120354.227500", "120356.235000", "120358.242500", "120400.250000", "120402.260000", "120404.267500", "120406.275000", "120408.282500", "120410.290000", "120412.300000", "120414.307500", "120416.315000", "120418.322500", "120420.332500", "120422.340000", "120424.347500", "120426.355000", "120428.362500", "120430.372500", "120432.380000", "120434.387500", "120436.395000", "120438.402500", "120440.412500", "120442.420000", "120444.427500", "120446.435000", "120448.445000", "120450.452500", "120452.460000", "120454.467500", "120456.475000", "120458.485000", "120500.492500", "120502.500000", "120504.507500", "120506.515000", "120508.525000", "120510.532500", "120512.540000", "120514.547500", "120516.555000", "120518.565000", "120520.572500", "120522.580000", "120524.587500", "120526.597500", "120528.605000", "120530.612500", "120532.620000", "120534.627500", "120536.637500", "120538.645000", "120540.652500", "120542.660000", "120544.667500", "120546.677500", "120548.685000", "120550.692500", "120552.700000", "120554.710000", "120556.717500", "120558.725000", "120600.732500", "120602.740000", "120604.750000", "120606.757500", "120608.765000", "120610.772500", "120612.780000", "120614.790000", "120616.797500", "120618.805000", "120620.812500", "120622.822500", "120624.830000", "120626.837500", "120628.845000", "120630.852500", "120632.862500", "120634.870000", "120636.877500", "120638.885000", "120640.892500", "120642.902500", "120644.910000", "120646.917500", "120648.925000", "120650.932500", "120652.942500", "120654.950000", "120656.957500", "120658.965000", "120700.975000", "120702.982500", "120704.990000", "120706.997500", "120709.005000", "120711.015000", "120713.022500", "120715.030000", "120717.037500", "120719.045000", "120721.055000", "120723.062500", "120725.070000", "120727.077500", "120729.087500", "120731.095000", "120733.102500", "120735.110000", "120737.117500", "120739.127500", "120741.135000", "120743.142500", "120745.150000", "120747.157500", "120749.167500", "120751.175000", "120753.182500", "120755.190000", "120757.200000", "120759.207500", "120801.215000", "120803.222500", "120805.230000", "120807.240000", "120809.247500", "120811.255000", "120813.262500", "120815.270000", "120817.280000", "120819.287500", "120821.295000", "120823.302500", "120825.310000", "120827.320000", "120829.327500", "120831.335000", "120833.342500", "120835.352500", "120837.360000", "120839.367500", "120841.375000", "120843.382500", "120845.392500", "120847.400000", "120849.407500", "120851.415000", "120853.422500", "120855.432500", "120857.440000", "120859.447500", "120901.455000", "120903.465000", "120905.472500", "120907.480000", "120909.487500", "120911.495000", "120913.505000", "120915.512500", "120917.520000", "120919.527500", "120921.535000", "120923.545000", "120925.552500", "120927.560000", "120929.567500", "120931.577500", "120933.585000", "120935.592500", "120937.600000", "120939.607500", "120941.617500", "120943.625000"],
      "ContentTime": ["120038.850000", "120038.852000", "120038.855000", "120038.857000", "120038.860000", "120038.862000", "120038.872000", "120038.875000", "120038.877000", "120038.877000", "120038.880000", "120038.882000", "120038.885000", "120038.887000", "120038.890000", "120038.892000", "120038.895000", "120038.897000", "120038.897000", "120038.900000", "120038.902000", "120038.905000", "120038.905000", "120038.907000", "120038.910000", "120038.912000", "120038.912000", "120118.845000", "120118.848000", "120118.850000", "120118.853000", "120118.855000", "120118.855000", "120118.858000", "120118.860000", "120118.873000", "120118.873000", "120118.875000", "120118.878000", "120118.880000", "120118.880000", "120118.883000", "120118.885000", "120118.888000", "120118.888000", "120118.890000", "120118.893000", "120158.846000", "120158.849000", "120158.851000", "120158.854000", "120158.854000", "120158.856000", "120158.859000", "120158.861000", "120158.861000", "120158.864000", "120158.866000", "120158.869000", "120158.871000", "120158.871000", "120158.874000", "120158.876000", "120158.879000", "120158.879000", "120158.881000", "120158.884000", "120238.847000", "120238.849000", "120238.852000", "120238.854000", "120238.857000", "120238.857000", "120238.859000", "120238.862000", "120238.864000", "120238.864000", "120238.867000", "120238.869000", "120238.872000", "120238.872000", "120238.874000", "120238.882000", "120238.884000", "120238.884000", "120238.887000", "120238.889000", "120318.845000", "120318.847000", "120318.850000", "120318.852000", "120318.855000", "120318.855000", "120318.857000", "120318.860000", "120318.862000", "120318.862000", "120318.865000", "120318.867000", "120318.870000", "120318.870000", "120318.872000", "120318.875000", "120318.877000", "120318.877000", "120318.880000", "120318.882000", "120358.845000", "120358.848000", "120358.850000", "120358.853000", "120358.855000", "120358.855000", "120358.858000", "120358.860000", "120358.863000", "120358.863000", "120358.865000", "120358.868000", "120358.870000", "120358.870000", "120358.873000", "120358.875000", "120358.878000", "120358.878000", "120358.880000", "120358.883000", "120438.846000", "120438.848000", "120438.851000", "120438.853000", "120438.856000", "120438.856000", "120438.858000", "120438.861000", "120438.863000", "120438.863000", "120438.866000", "120438.868000", "120438.871000", "120438.871000", "120438.873000", "120438.876000", "120438.878000", "120438.878000", "120438.881000", "120438.883000", "120518.847000", "120518.849000", "120518.852000", "120518.854000", "120518.854000", "120518.857000", "120518.859000", "120518.862000", "120518.864000", "120518.864000", "120518.867000", "120518.869000", "120518.872000", "120518.872000", "120518.874000", "120518.877000", "120518.879000", "120518.879000", "120518.882000", "120518.884000", "120558.845000", "120558.847000", "120558.872000", "120558.875000", "120558.877000", "120558.880000", "120558.880000", "120558.882000", "120558.885000", "120558.887000", "120558.890000", "120558.890000", "120558.892000", "120558.895000", "120558.897000", "120558.897000", "120558.900000", "120558.902000", "120558.905000", "120558.905000", "120638.845000", "120638.848000", "120638.850000", "120638.853000", "120638.855000", "120638.855000", "120638.858000", "120638.860000", "120638.863000", "120638.863000", "120638.865000", "120638.868000", "120638.870000", "120638.870000", "120638.873000", "120638.875000", "120638.880000", "120638.883000", "120638.885000", "120638.885000", "120718.848000", "120718.848000", "120718.851000", "120718.853000", "120718.856000", "120718.856000", "120718.858000", "120718.861000", "120718.863000", "120718.863000", "120718.866000", "120718.868000", "120718.871000", "120718.871000", "120718.873000", "120718.876000", "120718.878000", "120718.878000", "120718.881000", "120718.883000", "120758.847000", "120758.849000", "120758.852000", "120758.854000", "120758.857000", "120758.857000", "120758.859000", "120758.862000", "120758.864000", "120758.864000", "120758.867000", "120758.869000", "120758.872000", "120758.874000", "120758.874000", "120758.877000", "120758.879000", "120758.882000", "120758.882000", "120758.884000", "120838.845000", "120838.847000", "120838.850000", "120838.852000", "120838.855000", "120838.855000", "120838.857000", "120838.860000", "120838.862000", "120838.862000", "120838.865000", "120838.867000", "120838.870000", "120838.872000", "120838.872000", "120838.875000", "120838.877000", "120838.880000", "120838.880000", "120838.882000", "120918.845000", "120918.848000", "120918.850000", "120918.853000", "120918.855000", "120918.855000", "120918.858000", "120918.860000", "120918.863000", "120918.863000", "120918.865000", "120918.868000", "120918.870000", "120918.870000", "120918.873000", "120918.875000", "120918.878000", "120918.878000", "120918.880000", "120918.883000", "120943.606000", "120943.606000", "120943.608000", "120943.611000", "120943.613000", "120943.616000", "120943.616000", "120943.618000", "120943.621000", "120943.623000", "120943.626000", "120943.628000", "120943.631000"],
      "InstanceCreationTime": ["120038.850000", "120038.852000", "120038.855000", "120038.857000", "120038.860000", "120038.862000", "120038.872000", "120038.875000", "120038.877000", "120038.877000", "120038.880000", "120038.882000", "120038.885000", "120038.887000", "120038.890000", "120038.892000", "120038.895000", "120038.897000", "120038.897000", "120038.900000", "120038.902000", "120038.905000", "120038.905000", "120038.907000", "120038.910000", "120038.912000", "120038.912000", "120118.845000", "120118.848000", "120118.850000", "120118.853000", "120118.855000", "120118.855000", "120118.858000", "120118.860000", "120118.873000", "120118.873000", "120118.875000", "120118.878000", "120118.880000", "120118.880000", "120118.883000", "120118.885000", "120118.888000", "120118.888000", "120118.890000", "120118.893000", "120158.846000", "120158.849000", "120158.851000", "120158.854000", "120158.854000", "120158.856000", "120158.859000", "120158.861000", "120158.861000", "120158.864000", "120158.866000", "120158.869000", "120158.871000", "120158.871000", "120158.874000", "120158.876000", "120158.879000", "120158.879000", "120158.881000", "120158.884000", "120238.847000", "120238.849000", "120238.852000", "120238.854000", "120238.857000", "120238.857000", "120238.859000", "120238.862000", "120238.864000", "120238.864000", "120238.867000", "120238.869000", "120238.872000", "120238.872000", "120238.874000", "120238.882000", "120238.884000", "120238.884000", "120238.887000", "120238.889000", "120318.845000", "120318.847000", "120318.850000", "120318.852000", "120318.855000", "120318.855000", "120318.857000", "120318.860000", "120318.862000", "120318.862000", "120318.865000", "120318.867000", "120318.870000", "120318.870000", "120318.872000", "120318.875000", "120318.877000", "120318.877000", "120318.880000", "120318.882000", "120358.845000", "120358.848000", "120358.850000", "120358.853000", "120358.855000", "120358.855000", "120358.858000", "120358.860000", "120358.863000", "120358.863000", "120358.865000", "120358.868000", "120358.870000", "120358.870000", "120358.873000", "120358.875000", "120358.878000", "120358.878000", "120358.880000", "120358.883000", "120438.846000", "120438.848000", "120438.851000", "120438.853000", "120438.856000", "120438.856000", "120438.858000", "120438.861000", "120438.863000", "120438.863000", "120438.866000", "120438.868000", "120438.871000", "120438.871000", "120438.873000", "120438.876000", "120438.878000", "120438.878000", "120438.881000", "120438.883000", "120518.847000", "120518.849000", "120518.852000", "120518.854000", "120518.854000", "120518.857000", "120518.859000", "120518.862000", "120518.864000", "120518.864000", "120518.867000", "120518.869000", "120518.872000", "120518.872000", "120518.874000", "120518.877000", "120518.879000", "120518.879000", "120518.882000", "120518.884000", "120558.845000", "120558.847000", "120558.872000", "120558.875000", "120558.877000", "120558.880000", "120558.880000", "120558.882000", "120558.885000", "120558.887000", "120558.890000", "120558.890000", "120558.892000", "120558.895000", "120558.897000", "120558.897000", "120558.900000", "120558.902000", "120558.905000", "120558.905000", "120638.845000", "120638.848000", "120638.850000", "120638.853000", "120638.855000", "120638.855000", "120638.858000", "120638.860000", "120638.863000", "120638.863000", "120638.865000", "120638.868000", "120638.870000", "120638.870000", "120638.873000", "120638.875000", "120638.880000", "120638.883000", "120638.885000", "120638.885000", "120718.848000", "120718.848000", "120718.851000", "120718.853000", "120718.856000", "120718.856000", "120718.858000", "120718.861000", "120718.863000", "120718.863000", "120718.866000", "120718.868000", "120718.871000", "120718.871000", "120718.873000", "120718.876000", "120718.878000", "120718.878000", "120718.881000", "120718.883000", "120758.847000", "120758.849000", "120758.852000", "120758.854000", "120758.857000", "120758.857000", "120758.859000", "120758.862000", "120758.864000", "120758.864000", "120758.867000", "120758.869000", "120758.872000", "120758.874000", "120758.874000", "120758.877000", "120758.879000", "120758.882000", "120758.882000", "120758.884000", "120838.845000", "120838.847000", "120838.850000", "120838.852000", "120838.855000", "120838.855000", "120838.857000", "120838.860000", "120838.862000", "120838.862000", "120838.865000", "120838.867000", "120838.870000", "120838.872000", "120838.872000", "120838.875000", "120838.877000", "120838.880000", "120838.880000", "120838.882000", "120918.845000", "120918.848000", "120918.850000", "120918.853000", "120918.855000", "120918.855000", "120918.858000", "120918.860000", "120918.863000", "120918.863000", "120918.865000", "120918.868000", "120918.870000", "120918.870000", "120918.873000", "120918.875000", "120918.878000", "120918.878000", "120918.880000", "120918.883000", "120943.606000", "120943.606000", "120943.608000", "120943.611000", "120943.613000", "120943.616000", "120943.616000", "120943.618000", "120943.621000", "120943.623000", "120943.626000", "120943.628000", "120943.631000"],
      "InstanceNumber": [1, 2, 3, 4, 5, 6, 7, 8, 9, 10, 11, 12, 13, 14, 15, 16, 17, 18, 19, 20, 21, 22, 23, 24, 25, 26, 27, 28, 29, 30, 31, 32, 33, 34, 35, 36, 37, 38, 39, 40, 41, 42, 43, 44, 45, 46, 47, 48, 49, 50, 51, 52, 53, 54, 55, 56, 57, 58, 59, 60, 61, 62, 63, 64, 65, 66, 67, 68, 69, 70, 71, 72, 73, 74, 75, 76, 77, 78, 79, 80, 81, 82, 83, 84, 85, 86, 87, 88, 89, 90, 91, 92, 93, 94, 95, 96, 97, 98, 99, 100, 101, 102, 103, 104, 105, 106, 107, 108, 109, 110, 111, 112, 113, 114, 115, 116, 117, 118, 119, 120, 121, 122, 123, 124, 125, 126, 127, 128, 129, 130, 131, 132, 133, 134, 135, 136, 137, 138, 139, 140, 141, 142, 143, 144, 145, 146, 147, 148, 149, 150, 151, 152, 153, 154, 155, 156, 157, 158, 159, 160, 161, 162, 163, 164, 165, 166, 167, 168, 169, 170, 171, 172, 173, 174, 175, 176, 177, 178, 179, 180, 181, 182, 183, 184, 185, 186, 187, 188, 189, 190, 191, 192, 193, 194, 195, 196, 197, 198, 199, 200, 201, 202, 203, 204, 205, 206, 207, 208, 209, 210, 211, 212, 213, 214, 215, 216, 217, 218, 219, 220, 221, 222, 223, 224, 225, 226, 227, 228, 229, 230, 231, 232, 233, 234, 235, 236, 237, 238, 239, 240, 241, 242, 243, 244, 245, 246, 247, 248, 249, 250, 251, 252, 253, 254, 255, 256, 257, 258, 259, 260, 261, 262, 263, 264, 265, 266, 267, 268, 269, 270, 271, 272, 273, 274, 275, 276, 277, 278, 279, 280, 281, 282, 283, 284, 285, 286, 287, 288, 289, 290, 291, 292, 293, 294, 295, 296, 297, 298, 299, 300],
      "LargestImagePixelValue": [1471, 1661, 1980, 1789, 1546, 1487, 1481, 1500, 1912, 1349, 1724, 1875, 1520, 1445, 1367, 1810, 1478, 1426, 1553, 1678, 1459, 1366, 1390, 1570, 1673, 1425, 1463, 1712, 1800, 1448, 1387, 1382, 1601, 1714, 1585, 1667, 1438, 1430, 1424, 1571, 1436, 1415, 1501, 1731, 1704, 1449, 1384, 1640, 1400, 1432, 1433, 1516, 1548, 1584, 1428, 1379, 1558, 1653, 1695, 1383, 1481, 1425, 1401, 1367, 1631, 1663, 1356, 1554, 1548, 1800, 1674, 1453, 1556, 1810, 1497, 1405, 1688, 1576, 1402, 1662, 1356, 1391, 1576, 1695, 1332, 1420, 1704, 1830, 1339, 1372, 1363, 1345, 1565, 1723, 1325, 1499, 1642, 1383, 1772, 1709, 1872, 1357, 1352, 1726, 1455, 1913, 1701, 1354, 1525, 1358, 1366, 1536, 1996, 1592, 1321, 1428, 1353, 1572, 1752, 1401, 1508, 1538, 1419, 1537, 1693, 1368, 1439, 1465, 1427, 1533, 1768, 1447, 1581, 1492, 1398, 1722, 1348, 1349, 1523, 1720, 1570, 1337, 1571, 1529, 1493, 1655, 1416, 1417, 1643, 1491, 1474, 1678, 1396, 1357, 1963, 1421, 1815, 1834, 1457, 1338, 1398, 1400, 1681, 1359, 1751, 1822, 1605, 1384, 1385, 1480, 1766, 1754, 1432, 1354, 1357, 1817, 1629, 1383, 1691, 1926, 1363, 1752, 1417, 1704, 1800, 1431, 1391, 1589, 1390, 1509, 1763, 1513, 1370, 1934, 1377, 1484, 1599, 1457, 1380, 1362, 1690, 1375, 1387, 1499, 1742, 1651, 1344, 1491, 1767, 1349, 1725, 1594, 1473, 1816, 1510, 1477, 1459, 1614, 1665, 1338, 1413, 1742, 1392, 1562, 1580, 1733, 1331, 1520, 1870, 1922, 1468, 1439, 1396, 1605, 1398, 1415, 1532, 1702, 1376, 1498, 1841, 1471, 1410, 1876, 1517, 1380, 1869, 1731, 1395, 1372, 1454, 1389, 1753, 1457, 1398, 1446, 1350, 1464, 1545, 1758, 1619, 1341, 1472, 1759, 1900, 1421, 1653, 1841, 1438, 1734, 1631, 1352, 1607, 1854, 1511, 1387, 1423, 1519, 1354, 1534, 1464, 1416, 1505, 1609, 1667, 1491, 1367, 1736, 1838, 1783, 1370, 1380, 1481, 1380, 1454, 1701, 1852, 1704, 1351, 1462],
      "WindowCenter": [594.0, 591.0, 590.0, 588.0, 586.0, 586.0, 588.0, 587.0, 590.0, 587.0, 590.0, 588.0, 587.0, 585.0, 585.0, 589.0, 588.0, 586.0, 587.0, 589.0, 587.0, 586.0, 587.0, 588.0, 590.0, 588.0, 588.0, 591.0, 591.0, 589.0, 587.0, 587.0, 588.0, 589.0, 588.0, 588.0, 587.0, 587.0, 588.0, 589.0, 588.0, 588.0, 587.0, 588.0, 588.0, 586.0, 587.0, 588.0, 588.0, 588.0, 587.0, 588.0, 589.0, 589.0, 587.0, 586.0, 589.0, 588.0, 588.0, 586.0, 587.0, 588.0, 591.0, 588.0, 590.0, 590.0, 589.0, 591.0, 590.0, 590.0, 589.0, 589.0, 588.0, 589.0, 587.0, 586.0, 590.0, 588.0, 586.0, 589.0, 588.0, 588.0, 588.0, 588.0, 586.0, 589.0, 591.0, 591.0, 586.0, 586.0, 585.0, 586.0, 588.0, 591.0, 589.0, 590.0, 591.0, 589.0, 591.0, 589.0, 589.0, 585.0, 586.0, 591.0, 590.0, 592.0, 589.0, 587.0, 588.0, 587.0, 588.0, 589.0, 590.0, 588.0, 586.0, 587.0, 588.0, 590.0, 590.0, 588.0, 589.0, 589.0, 589.0, 589.0, 590.0, 588.0, 588.0, 590.0, 589.0, 589.0, 591.0, 588.0, 589.0, 590.0, 589.0, 591.0, 587.0, 588.0, 589.0, 590.0, 589.0, 587.0, 591.0, 591.0, 590.0, 592.0, 589.0, 590.0, 591.0, 590.0, 589.0, 590.0, 588.0, 590.0, 594.0, 590.0, 591.0, 590.0, 587.0, 587.0, 589.0, 591.0, 592.0, 591.0, 593.0, 592.0, 591.0, 589.0, 588.0, 590.0, 592.0, 590.0, 589.0, 589.0, 589.0, 593.0, 592.0, 590.0, 593.0, 592.0, 589.0, 593.0, 590.0, 593.0, 592.0, 590.0, 589.0, 591.0, 591.0, 592.0, 593.0, 591.0, 590.0, 593.0, 590.0, 591.0, 591.0, 590.0, 591.0, 590.0, 593.0, 591.0, 591.0, 592.0, 593.0, 592.0, 590.0, 593.0, 594.0, 592.0, 594.0, 593.0, 593.0, 594.0, 590.0, 590.0, 591.0, 592.0, 591.0, 590.0, 592.0, 593.0, 593.0, 593.0, 591.0, 592.0, 591.0, 593.0, 595.0, 595.0, 591.0, 591.0, 591.0, 593.0, 592.0, 592.0, 592.0, 594.0, 592.0, 593.0, 595.0, 592.0, 591.0, 594.0, 592.0, 591.0, 594.0, 592.0, 590.0, 590.0, 590.0, 589.0, 593.0, 591.0, 591.0, 592.0, 593.0, 594.0, 593.0, 593.0, 593.0, 593.0, 594.0, 596.0, 595.0, 592.0, 594.0, 595.0, 591.0, 593.0, 591.0, 591.0, 593.0, 594.0, 592.0, 591.0, 592.0, 594.0, 592.0, 594.0, 593.0, 594.0, 595.0, 594.0, 594.0, 592.0, 593.0, 596.0, 596.0, 595.0, 591.0, 592.0, 593.0, 593.0, 594.0, 595.0, 595.0, 594.0, 591.0, 594.0],
      "WindowWidth": [1250.0, 1243.0, 1241.0, 1235.0, 1233.0, 1233.0, 1236.0, 1235.0, 1240.0, 1235.0, 1240.0, 1237.0, 1234.0, 1231.0, 1230.0, 1238.0, 1236.0, 1232.0, 1234.0, 1238.0, 1234.0, 1232.0, 1233.0, 1236.0, 1240.0, 1235.0, 1236.0, 1242.0, 1242.0, 1238.0, 1235.0, 1234.0, 1235.0, 1237.0, 1236.0, 1235.0, 1235.0, 1235.0, 1236.0, 1238.0, 1238.0, 1236.0, 1235.0, 1236.0, 1236.0, 1233.0, 1234.0, 1237.0, 1236.0, 1236.0, 1234.0, 1236.0, 1239.0, 1238.0, 1234.0, 1234.0, 1238.0, 1237.0, 1236.0, 1233.0, 1235.0, 1237.0, 1243.0, 1236.0, 1241.0, 1240.0, 1239.0, 1241.0, 1239.0, 1240.0, 1238.0, 1238.0, 1237.0, 1239.0, 1235.0, 1233.0, 1240.0, 1237.0, 1233.0, 1239.0, 1236.0, 1237.0, 1236.0, 1236.0, 1233.0, 1239.0, 1243.0, 1241.0, 1231.0, 1232.0, 1230.0, 1232.0, 1237.0, 1241.0, 1238.0, 1240.0, 1241.0, 1239.0, 1242.0, 1239.0, 1239.0, 1231.0, 1233.0, 1242.0, 1240.0, 1244.0, 1238.0, 1233.0, 1235.0, 1234.0, 1237.0, 1237.0, 1240.0, 1236.0, 1233.0, 1234.0, 1236.0, 1240.0, 1240.0, 1237.0, 1238.0, 1239.0, 1238.0, 1239.0, 1240.0, 1238.0, 1236.0, 1240.0, 1239.0, 1239.0, 1242.0, 1237.0, 1237.0, 1240.0, 1238.0, 1242.0, 1235.0, 1238.0, 1239.0, 1240.0, 1238.0, 1234.0, 1242.0, 1243.0, 1242.0, 1244.0, 1239.0, 1241.0, 1244.0, 1239.0, 1239.0, 1241.0, 1237.0, 1241.0, 1248.0, 1241.0, 1243.0, 1240.0, 1234.0, 1234.0, 1239.0, 1242.0, 1246.0, 1244.0, 1246.0, 1245.0, 1243.0, 1239.0, 1237.0, 1241.0, 1245.0, 1241.0, 1238.0, 1239.0, 1239.0, 1247.0, 1245.0, 1241.0, 1247.0, 1245.0, 1240.0, 1246.0, 1241.0, 1246.0, 1246.0, 1242.0, 1239.0, 1242.0, 1243.0, 1246.0, 1247.0, 1242.0, 1241.0, 1247.0, 1241.0, 1243.0, 1242.0, 1241.0, 1243.0, 1242.0, 1248.0, 1242.0, 1243.0, 1245.0, 1247.0, 1245.0, 1241.0, 1247.0, 1249.0, 1245.0, 1249.0, 1247.0, 1247.0, 1248.0, 1242.0, 1240.0, 1243.0, 1244.0, 1243.0, 1241.0, 1244.0, 1248.0, 1247.0, 1247.0, 1244.0, 1245.0, 1242.0, 1248.0, 1252.0, 1251.0, 1243.0, 1244.0, 1243.0, 1247.0, 1246.0, 1246.0, 1246.0, 1249.0, 1245.0, 1247.0, 1252.0, 1246.0, 1244.0, 1249.0, 1245.0, 1243.0, 1249.0, 1245.0, 1241.0, 1241.0, 1242.0, 1240.0, 1247.0, 1243.0, 1243.0, 1245.0, 1248.0, 1249.0, 1248.0, 1248.0, 1247.0, 1248.0, 1250.0, 1253.0, 1251.0, 1245.0, 1249.0, 1251.0, 1244.0, 1246.0, 1243.0, 1243.0, 1246.0, 1249.0, 1246.0, 1243.0, 1245.0, 1249.0, 1246.0, 1250.0, 1247.0, 1251.0, 1251.0, 1250.0, 1248.0, 1246.0, 1247.0, 1253.0, 1253.0, 1251.0, 1243.0, 1245.0, 1247.0, 1248.0, 1251.0, 1251.0, 1252.0, 1249.0, 1244.0, 1249.0]
    },
    "slices": {}
  }
}