{
  "AcquisitionMatrixPE": 74,
  "AcquisitionNumber": 1,
  "AcquisitionTime": "13:12:11.920000",
  "BandwidthPerPixelPhaseEncode": 27.579,
  "BaseResolution": 74,
  "BodyPartExamined": "HEAD",
  "CoilString": "t:HEA;HEP",
  "ConversionSoftware": "dcm2niix",
  "ConversionSoftwareVersion": "v1.0.20190410  GCC6.3.0",
  "DerivedVendorReportedEchoSpacing": 0.000489993,
  "DeviceSerialNumber": "35256",
  "DwellTime": 2.4e-06,
  "EchoTime": 0.03,
  "EffectiveEchoSpacing": 0.000489993,
  "FlipAngle": 70,
  "ImageOrientationPatientDICOM": [1, 0, 0, 0, 1, 0],
  "ImageType": [
    "ORIGINAL",
    "PRIMARY",
    "M",
    "ND",
    "NORM",
    "MOSAIC"
],
  "ImagingFrequency": 123.223,
  "InPlanePhaseEncodingDirectionDICOM": "COL",
  "InstitutionAddress": "East_Lee_St._2907_Greensboro_NC_US_27401",
  "InstitutionName": "JSNN",
  "InstitutionalDepartmentName": "Department",
  "MRAcquisitionType": "2D",
  "MagneticFieldStrength": 3,
  "Manufacturer": "Siemens",
  "ManufacturersModelName": "TrioTim",
  "Modality": "MR",
  "PartialFourier": 1,
  "PatientPosition": "HFS",
  "PercentPhaseFOV": 100,
  "PhaseEncodingDirection": "j-",
  "PhaseEncodingSteps": 74,
  "PhaseResolution": 1,
  "PixelBandwidth": 2815,
  "ProcedureStepDescription": "head_Cassidy",
  "ProtocolName": "RestingState",
  "PulseSequenceDetails": "%SiemensSeq%_ep2d_bold",
  "ReceiveCoilName": "HeadMatrix",
  "ReconMatrixPE": 74,
  "RepetitionTime": 2,
  "SAR": 0.0927803,
  "ScanOptions": "FS",
  "ScanningSequence": "EP",
  "SequenceName": "_epfid2d1_74",
  "SequenceVariant": "SK",
  "SeriesDescription": "RestingState",
  "SeriesNumber": 3,
  "ShimSetting": [1376, 10547, -8912, 738, 47, -372, 302, -11],
  "SliceThickness": 4,
  "SliceTiming": [1.945, 1.8825, 1.82, 1.755, 1.6925, 1.63, 1.5675, 1.505, 1.4425, 1.38, 1.3175, 1.255, 1.1925, 1.13, 1.065, 1.0025, 0.94, 0.8775, 0.815, 0.7525, 0.69, 0.6275, 0.565, 0.5025, 0.44, 0.375, 0.3125, 0.25, 0.1875, 0.125, 0.0625, 0],
  "SoftwareVersions": "syngo_MR_B19",
  "SpacingBetweenSlices": 4,
  "StationName": "JSNNMRI",
  "TaskName": "rest",
  "TotalReadoutTime": 0.0357695,
  "TxRefAmp": 269.387,
  "dcmmeta_affine": [
    [-2.972972869873047, 0.0, 0.0, 105.18071746826172],
    [0.0, 2.972972869873047, 0.0, -92.65641784667969],
    [0.0, 0.0, 4.0, -82.51570892333984],
    [0.0, 0.0, 0.0, 1.0]
],
  "dcmmeta_reorient_transform": [
    [0.0, -1.0, 0.0, 73.0],
    [1.0, 0.0, 0.0, 0.0],
    [0.0, 0.0, 1.0, 0.0],
    [0.0, 0.0, 0.0, 1.0]
],
  "dcmmeta_shape": [74, 74, 32, 300],
  "dcmmeta_slice_dim": 2,
  "dcmmeta_version": 0.6,
  "global": {
    "const": {
      "AcquisitionMatrix": [74, 0, 0, 74],
      "AngioFlag": "N",
      "BitsAllocated": 16,
      "BitsStored": 12,
      "BodyPartExamined": "HEAD",
      "Columns": 444,
      "EchoNumbers": 1,
      "EchoTime": 30.0,
      "EchoTrainLength": 1,
      "FlipAngle": 70.0,
      "HighBit": 11,
      "ImageOrientationPatient": [1.0, 0.0, 0.0, 0.0, 1.0, 0.0],
      "ImagePositionPatient": [-655.18069982529, -674.37058258057, -82.51570892334],
      "ImageType": [
        "ORIGINAL",
        "PRIMARY",
        "M",
        "ND",
        "NORM",
        "MOSAIC"
],
      "ImagedNucleus": "1H",
      "ImagingFrequency": 123.223156,
      "InPlanePhaseEncodingDirection": "COL",
      "MRAcquisitionType": "2D",
      "MagneticFieldStrength": 3.0,
      "Manufacturer": "SIEMENS",
      "ManufacturerModelName": "TrioTim",
      "Modality": "MR",
      "NumberOfAverages": 1.0,
      "NumberOfPhaseEncodingSteps": 74,
      "PercentPhaseFieldOfView": 100.0,
      "PercentSampling": 100.0,
      "PerformedProcedureStepStartTime": "122420.609000",
      "PhotometricInterpretation": "MONOCHROME2",
      "PixelBandwidth": 2815.0,
      "PixelRepresentation": 0,
      "PixelSpacing": [2.972972869873, 2.972972869873],
      "ProtocolName": "RestingState",
      "RepetitionTime": 2000.0,
      "Rows": 444,
      "SAR": 0.09278027301854,
      "SamplesPerPixel": 1,
      "ScanOptions": "FS",
      "ScanningSequence": "EP",
      "SequenceName": "*epfid2d1_74",
      "SequenceVariant": "SK",
      "SeriesDescription": "RestingState",
      "SeriesNumber": 3,
      "SeriesTime": "131302.921000",
      "SliceLocation": -82.51570892334,
      "SliceThickness": 4.0,
      "SmallestImagePixelValue": 0,
      "SoftwareVersions": "syngo MR B19",
      "SpacingBetweenSlices": 4.0,
      "SpecificCharacterSet": "ISO_IR 100",
      "StudyID": "1",
      "StudyTime": "122420.500000",
      "TransmitCoilName": "Body",
      "VariableFlipAngleFlag": "N",
      "WindowCenterWidthExplanation": "Algo1",
      "dBdt": 0.0},
    "slices": {}
  },
  "time": {
    "samples": {
      "AcquisitionNumber": [1, 2, 3, 4, 5, 6, 7, 8, 9, 10, 11, 12, 13, 14, 15, 16, 17, 18, 19, 20, 21, 22, 23, 24, 25, 26, 27, 28, 29, 30, 31, 32, 33, 34, 35, 36, 37, 38, 39, 40, 41, 42, 43, 44, 45, 46, 47, 48, 49, 50, 51, 52, 53, 54, 55, 56, 57, 58, 59, 60, 61, 62, 63, 64, 65, 66, 67, 68, 69, 70, 71, 72, 73, 74, 75, 76, 77, 78, 79, 80, 81, 82, 83, 84, 85, 86, 87, 88, 89, 90, 91, 92, 93, 94, 95, 96, 97, 98, 99, 100, 101, 102, 103, 104, 105, 106, 107, 108, 109, 110, 111, 112, 113, 114, 115, 116, 117, 118, 119, 120, 121, 122, 123, 124, 125, 126, 127, 128, 129, 130, 131, 132, 133, 134, 135, 136, 137, 138, 139, 140, 141, 142, 143, 144, 145, 146, 147, 148, 149, 150, 151, 152, 153, 154, 155, 156, 157, 158, 159, 160, 161, 162, 163, 164, 165, 166, 167, 168, 169, 170, 171, 172, 173, 174, 175, 176, 177, 178, 179, 180, 181, 182, 183, 184, 185, 186, 187, 188, 189, 190, 191, 192, 193, 194, 195, 196, 197, 198, 199, 200, 201, 202, 203, 204, 205, 206, 207, 208, 209, 210, 211, 212, 213, 214, 215, 216, 217, 218, 219, 220, 221, 222, 223, 224, 225, 226, 227, 228, 229, 230, 231, 232, 233, 234, 235, 236, 237, 238, 239, 240, 241, 242, 243, 244, 245, 246, 247, 248, 249, 250, 251, 252, 253, 254, 255, 256, 257, 258, 259, 260, 261, 262, 263, 264, 265, 266, 267, 268, 269, 270, 271, 272, 273, 274, 275, 276, 277, 278, 279, 280, 281, 282, 283, 284, 285, 286, 287, 288, 289, 290, 291, 292, 293, 294, 295, 296, 297, 298, 299, 300],
      "AcquisitionTime": ["131211.920000", "131213.927500", "131215.935000", "131217.942500", "131219.952500", "131221.960000", "131223.967500", "131225.975000", "131227.982500", "131229.992500", "131232.000000", "131234.007500", "131236.015000", "131238.025000", "131240.032500", "131242.040000", "131244.047500", "131246.055000", "131248.065000", "131250.072500", "131252.080000", "131254.087500", "131256.095000", "131258.105000", "131300.112500", "131302.120000", "131304.127500", "131306.135000", "131308.145000", "131310.152500", "131312.160000", "131314.167500", "131316.177500", "131318.185000", "131320.192500", "131322.200000", "131324.207500", "131326.217500", "131328.225000", "131330.232500", "131332.240000", "131334.247500", "131336.257500", "131338.265000", "131340.272500", "131342.280000", "131344.290000", "131346.297500", "131348.305000", "131350.312500", "131352.320000", "131354.330000", "131356.337500", "131358.345000", "131400.352500", "131402.360000", "131404.370000", "131406.377500", "131408.385000", "131410.392500", "131412.402500", "131414.410000", "131416.417500", "131418.425000", "131420.432500", "131422.442500", "131424.450000", "131426.457500", "131428.465000", "131430.472500", "131432.482500", "131434.490000", "131436.497500", "131438.505000", "131440.515000", "131442.522500", "131444.530000", "131446.537500", "131448.545000", "131450.555000", "131452.562500", "131454.570000", "131456.577500", "131458.585000", "131500.595000", "131502.602500", "131504.610000", "131506.617500", "131508.625000", "131510.635000", "131512.642500", "131514.650000", "131516.657500", "131518.667500", "131520.675000", "131522.682500", "131524.690000", "131526.697500", "131528.707500", "131530.715000", "131532.722500", "131534.730000", "131536.737500", "131538.747500", "131540.755000", "131542.762500", "131544.770000", "131546.780000", "131548.787500", "131550.795000", "131552.802500", "131554.810000", "131556.820000", "131558.827500", "131600.835000", "131602.842500", "131604.850000", "131606.860000", "131608.867500", "131610.875000", "131612.882500", "131614.892500", "131616.900000", "131618.907500", "131620.915000", "131622.922500", "131624.932500", "131626.940000", "131628.947500", "131630.955000", "131632.962500", "131634.972500", "131636.980000", "131638.987500", "131640.995000", "131643.002500", "131645.012500", "131647.020000", "131649.027500", "131651.035000", "131653.045000", "131655.052500", "131657.060000", "131659.067500", "131701.075000", "131703.085000", "131705.092500", "131707.100000", "131709.107500", "131711.115000", "131713.125000", "131715.132500", "131717.140000", "131719.147500", "131721.157500", "131723.165000", "131725.172500", "131727.180000", "131729.187500", "131731.197500", "131733.205000", "131735.212500", "131737.220000", "131739.227500", "131741.237500", "131743.245000", "131745.252500", "131747.260000", "131749.270000", "131751.277500", "131753.285000", "131755.292500", "131757.300000", "131759.310000", "131801.317500", "131803.325000", "131805.332500", "131807.340000", "131809.350000", "131811.357500", "131813.365000", "131815.372500", "131817.380000", "131819.390000", "131821.397500", "131823.405000", "131825.412500", "131827.422500", "131829.430000", "131831.437500", "131833.445000", "131835.452500", "131837.462500", "131839.470000", "131841.477500", "131843.485000", "131845.492500", "131847.502500", "131849.510000", "131851.517500", "131853.525000", "131855.535000", "131857.542500", "131859.550000", "131901.557500", "131903.565000", "131905.575000", "131907.582500", "131909.590000", "131911.597500", "131913.605000", "131915.615000", "131917.622500", "131919.630000", "131921.637500", "131923.647500", "131925.655000", "131927.662500", "131929.670000", "131931.677500", "131933.687500", "131935.695000", "131937.702500", "131939.710000", "131941.717500", "131943.727500", "131945.735000", "131947.742500", "131949.750000", "131951.757500", "131953.767500", "131955.775000", "131957.782500", "131959.790000", "132001.800000", "132003.807500", "132005.815000", "132007.822500", "132009.830000", "132011.840000", "132013.847500", "132015.855000", "132017.862500", "132019.870000", "132021.880000", "132023.887500", "132025.895000", "132027.902500", "132029.912500", "132031.920000", "132033.927500", "132035.935000", "132037.942500", "132039.952500", "132041.960000", "132043.967500", "132045.975000", "132047.982500", "132049.992500", "132052.000000", "132054.007500", "132056.015000", "132058.025000", "132100.032500", "132102.040000", "132104.047500", "132106.055000", "132108.065000", "132110.072500", "132112.080000", "132114.087500", "132116.095000", "132118.105000", "132120.112500", "132122.120000", "132124.127500", "132126.135000", "132128.145000", "132130.152500", "132132.160000", "132134.167500", "132136.177500", "132138.185000", "132140.192500", "132142.200000", "132144.207500", "132146.217500", "132148.225000", "132150.232500", "132152.240000", "132154.247500", "132156.257500", "132158.265000", "132200.272500", "132202.280000", "132204.290000", "132206.297500", "132208.305000", "132210.312500", "132212.320000"],
      "ContentTime": ["131302.937000", "131302.937000", "131302.953000", "131302.953000", "131302.953000", "131302.953000", "131302.953000", "131302.953000", "131302.953000", "131302.968000", "131302.968000", "131302.968000", "131302.968000", "131302.968000", "131302.968000", "131302.968000", "131302.968000", "131302.984000", "131302.984000", "131302.984000", "131302.984000", "131303.000000", "131303.000000", "131303.000000", "131303.000000", "131342.906000", "131342.906000", "131342.921000", "131342.921000", "131342.921000", "131342.937000", "131342.937000", "131342.937000", "131342.937000", "131342.937000", "131342.953000", "131342.953000", "131342.953000", "131342.953000", "131342.953000", "131342.953000", "131342.953000", "131342.953000", "131342.968000", "131342.968000", "131422.906000", "131422.906000", "131422.906000", "131422.921000", "131422.921000", "131422.921000", "131422.921000", "131422.921000", "131422.921000", "131422.921000", "131422.937000", "131422.937000", "131422.937000", "131422.937000", "131422.937000", "131422.937000", "131422.937000", "131422.937000", "131422.953000", "131422.953000", "131502.906000", "131502.921000", "131502.921000", "131502.921000", "131502.921000", "131502.937000", "131502.937000", "131502.937000", "131502.937000", "131502.937000", "131502.937000", "131502.937000", "131502.937000", "131502.953000", "131502.953000", "131502.953000", "131502.968000", "131502.968000", "131502.968000", "131502.968000", "131542.906000", "131542.906000", "131542.906000", "131542.921000", "131542.921000", "131542.921000", "131542.921000", "131542.921000", "131542.921000", "131542.921000", "131542.937000", "131542.937000", "131542.937000", "131542.937000", "131542.937000", "131542.937000", "131542.937000", "131542.937000", "131542.953000", "131542.953000", "131622.906000", "131622.906000", "131622.906000", "131622.921000", "131622.921000", "131622.921000", "131622.921000", "131622.921000", "131622.921000", "131622.921000", "131622.937000", "131622.937000", "131622.937000", "131622.937000", "131622.937000", "131622.937000", "131622.937000", "131622.937000", "131622.953000", "131622.953000", "131702.906000", "131702.906000", "131702.906000", "131702.921000", "131702.921000", "131702.921000", "131702.921000", "131702.921000", "131702.921000", "131702.921000", "131702.937000", "131702.937000", "131702.937000", "131702.937000", "131702.937000", "131702.937000", "131702.937000", "131702.937000", "131702.953000", "131702.953000", "131742.906000", "131742.906000", "131742.921000", "131742.921000", "131742.921000", "131742.921000", "131742.921000", "131742.921000", "131742.921000", "131742.937000", "131742.937000", "131742.937000", "131742.953000", "131742.953000", "131742.953000", "131742.953000", "131742.953000", "131742.968000", "131742.968000", "131742.968000", "131822.906000", "131822.906000", "131822.921000", "131822.921000", "131822.921000", "131822.937000", "131822.937000", "131822.937000", "131822.937000", "131822.937000", "131822.937000", "131822.937000", "131822.953000", "131822.953000", "131822.953000", "131822.953000", "131822.953000", "131822.953000", "131822.968000", "131822.968000", "131902.906000", "131902.921000", "131902.921000", "131902.921000", "131902.921000", "131902.921000", "131902.937000", "131902.937000", "131902.937000", "131902.937000", "131902.953000", "131902.953000", "131902.953000", "131902.953000", "131902.953000", "131902.953000", "131902.953000", "131902.968000", "131902.968000", "131902.968000", "131942.906000", "131942.906000", "131942.906000", "131942.921000", "131942.921000", "131942.921000", "131942.921000", "131942.921000", "131942.921000", "131942.921000", "131942.937000", "131942.937000", "131942.937000", "131942.937000", "131942.937000", "131942.937000", "131942.937000", "131942.937000", "131942.953000", "131942.953000", "132022.906000", "132022.906000", "132022.921000", "132022.921000", "132022.921000", "132022.921000", "132022.921000", "132022.921000", "132022.921000", "132022.921000", "132022.937000", "132022.937000", "132022.937000", "132022.937000", "132022.937000", "132022.937000", "132022.937000", "132022.937000", "132022.953000", "132022.953000", "132102.906000", "132102.906000", "132102.906000", "132102.921000", "132102.921000", "132102.921000", "132102.921000", "132102.921000", "132102.921000", "132102.921000", "132102.921000", "132102.937000", "132102.937000", "132102.937000", "132102.937000", "132102.937000", "132102.937000", "132102.937000", "132102.953000", "132102.953000", "132142.906000", "132142.906000", "132142.906000", "132142.921000", "132142.921000", "132142.921000", "132142.921000", "132142.921000", "132142.921000", "132142.921000", "132142.937000", "132142.937000", "132142.937000", "132142.937000", "132142.937000", "132142.937000", "132142.937000", "132142.937000", "132142.953000", "132142.953000", "132211.468000", "132211.468000", "132211.468000", "132211.468000", "132211.468000", "132211.468000", "132211.484000", "132211.484000", "132211.484000", "132211.484000", "132211.484000", "132211.484000", "132211.484000", "132211.500000", "132211.500000"],
      "InstanceCreationTime": ["131302.937000", "131302.937000", "131302.953000", "131302.953000", "131302.953000", "131302.953000", "131302.953000", "131302.953000", "131302.953000", "131302.968000", "131302.968000", "131302.968000", "131302.968000", "131302.968000", "131302.968000", "131302.968000", "131302.968000", "131302.984000", "131302.984000", "131302.984000", "131302.984000", "131303.000000", "131303.000000", "131303.000000", "131303.000000", "131342.906000", "131342.906000", "131342.921000", "131342.921000", "131342.921000", "131342.937000", "131342.937000", "131342.937000", "131342.937000", "131342.937000", "131342.953000", "131342.953000", "131342.953000", "131342.953000", "131342.953000", "131342.953000", "131342.953000", "131342.953000", "131342.968000", "131342.968000", "131422.906000", "131422.906000", "131422.906000", "131422.921000", "131422.921000", "131422.921000", "131422.921000", "131422.921000", "131422.921000", "131422.921000", "131422.937000", "131422.937000", "131422.937000", "131422.937000", "131422.937000", "131422.937000", "131422.937000", "131422.937000", "131422.953000", "131422.953000", "131502.906000", "131502.921000", "131502.921000", "131502.921000", "131502.921000", "131502.937000", "131502.937000", "131502.937000", "131502.937000", "131502.937000", "131502.937000", "131502.937000", "131502.937000", "131502.953000", "131502.953000", "131502.953000", "131502.968000", "131502.968000", "131502.968000", "131502.968000", "131542.906000", "131542.906000", "131542.906000", "131542.921000", "131542.921000", "131542.921000", "131542.921000", "131542.921000", "131542.921000", "131542.921000", "131542.937000", "131542.937000", "131542.937000", "131542.937000", "131542.937000", "131542.937000", "131542.937000", "131542.937000", "131542.953000", "131542.953000", "131622.906000", "131622.906000", "131622.906000", "131622.921000", "131622.921000", "131622.921000", "131622.921000", "131622.921000", "131622.921000", "131622.921000", "131622.937000", "131622.937000", "131622.937000", "131622.937000", "131622.937000", "131622.937000", "131622.937000", "131622.937000", "131622.953000", "131622.953000", "131702.906000", "131702.906000", "131702.906000", "131702.921000", "131702.921000", "131702.921000", "131702.921000", "131702.921000", "131702.921000", "131702.921000", "131702.937000", "131702.937000", "131702.937000", "131702.937000", "131702.937000", "131702.937000", "131702.937000", "131702.937000", "131702.953000", "131702.953000", "131742.906000", "131742.906000", "131742.921000", "131742.921000", "131742.921000", "131742.921000", "131742.921000", "131742.921000", "131742.921000", "131742.937000", "131742.937000", "131742.937000", "131742.953000", "131742.953000", "131742.953000", "131742.953000", "131742.953000", "131742.968000", "131742.968000", "131742.968000", "131822.906000", "131822.906000", "131822.921000", "131822.921000", "131822.921000", "131822.937000", "131822.937000", "131822.937000", "131822.937000", "131822.937000", "131822.937000", "131822.937000", "131822.953000", "131822.953000", "131822.953000", "131822.953000", "131822.953000", "131822.953000", "131822.968000", "131822.968000", "131902.906000", "131902.921000", "131902.921000", "131902.921000", "131902.921000", "131902.921000", "131902.937000", "131902.937000", "131902.937000", "131902.937000", "131902.953000", "131902.953000", "131902.953000", "131902.953000", "131902.953000", "131902.953000", "131902.953000", "131902.968000", "131902.968000", "131902.968000", "131942.906000", "131942.906000", "131942.906000", "131942.921000", "131942.921000", "131942.921000", "131942.921000", "131942.921000", "131942.921000", "131942.921000", "131942.937000", "131942.937000", "131942.937000", "131942.937000", "131942.937000", "131942.937000", "131942.937000", "131942.937000", "131942.953000", "131942.953000", "132022.906000", "132022.906000", "132022.921000", "132022.921000", "132022.921000", "132022.921000", "132022.921000", "132022.921000", "132022.921000", "132022.921000", "132022.937000", "132022.937000", "132022.937000", "132022.937000", "132022.937000", "132022.937000", "132022.937000", "132022.937000", "132022.953000", "132022.953000", "132102.906000", "132102.906000", "132102.906000", "132102.921000", "132102.921000", "132102.921000", "132102.921000", "132102.921000", "132102.921000", "132102.921000", "132102.921000", "132102.937000", "132102.937000", "132102.937000", "132102.937000", "132102.937000", "132102.937000", "132102.937000", "132102.953000", "132102.953000", "132142.906000", "132142.906000", "132142.906000", "132142.921000", "132142.921000", "132142.921000", "132142.921000", "132142.921000", "132142.921000", "132142.921000", "132142.937000", "132142.937000", "132142.937000", "132142.937000", "132142.937000", "132142.937000", "132142.937000", "132142.937000", "132142.953000", "132142.953000", "132211.468000", "132211.468000", "132211.468000", "132211.468000", "132211.468000", "132211.468000", "132211.484000", "132211.484000", "132211.484000", "132211.484000", "132211.484000", "132211.484000", "132211.484000", "132211.500000", "132211.500000"],
      "InstanceNumber": [1, 2, 3, 4, 5, 6, 7, 8, 9, 10, 11, 12, 13, 14, 15, 16, 17, 18, 19, 20, 21, 22, 23, 24, 25, 26, 27, 28, 29, 30, 31, 32, 33, 34, 35, 36, 37, 38, 39, 40, 41, 42, 43, 44, 45, 46, 47, 48, 49, 50, 51, 52, 53, 54, 55, 56, 57, 58, 59, 60, 61, 62, 63, 64, 65, 66, 67, 68, 69, 70, 71, 72, 73, 74, 75, 76, 77, 78, 79, 80, 81, 82, 83, 84, 85, 86, 87, 88, 89, 90, 91, 92, 93, 94, 95, 96, 97, 98, 99, 100, 101, 102, 103, 104, 105, 106, 107, 108, 109, 110, 111, 112, 113, 114, 115, 116, 117, 118, 119, 120, 121, 122, 123, 124, 125, 126, 127, 128, 129, 130, 131, 132, 133, 134, 135, 136, 137, 138, 139, 140, 141, 142, 143, 144, 145, 146, 147, 148, 149, 150, 151, 152, 153, 154, 155, 156, 157, 158, 159, 160, 161, 162, 163, 164, 165, 166, 167, 168, 169, 170, 171, 172, 173, 174, 175, 176, 177, 178, 179, 180, 181, 182, 183, 184, 185, 186, 187, 188, 189, 190, 191, 192, 193, 194, 195, 196, 197, 198, 199, 200, 201, 202, 203, 204, 205, 206, 207, 208, 209, 210, 211, 212, 213, 214, 215, 216, 217, 218, 219, 220, 221, 222, 223, 224, 225, 226, 227, 228, 229, 230, 231, 232, 233, 234, 235, 236, 237, 238, 239, 240, 241, 242, 243, 244, 245, 246, 247, 248, 249, 250, 251, 252, 253, 254, 255, 256, 257, 258, 259, 260, 261, 262, 263, 264, 265, 266, 267, 268, 269, 270, 271, 272, 273, 274, 275, 276, 277, 278, 279, 280, 281, 282, 283, 284, 285, 286, 287, 288, 289, 290, 291, 292, 293, 294, 295, 296, 297, 298, 299, 300],
      "LargestImagePixelValue": [1488, 1982, 1441, 1445, 1545, 1423, 1838, 1402, 1756, 1289, 1665, 1542, 1440, 1649, 1326, 1309, 1258, 1253, 1431, 1265, 1371, 1306, 1268, 1596, 1395, 1393, 1318, 1413, 1343, 1341, 1373, 1318, 1387, 1319, 1338, 1502, 1259, 1512, 1301, 1349, 1477, 1308, 1279, 1312, 1293, 1367, 1405, 1381, 1342, 1452, 1333, 1631, 1320, 1298, 1518, 1365, 1435, 1547, 1394, 1274, 1660, 1317, 1350, 1300, 1261, 1453, 1462, 1362, 1420, 1353, 1420, 1312, 1416, 1460, 1435, 1338, 1548, 1330, 1500, 1355, 1430, 1355, 1354, 1519, 1294, 1433, 1384, 1368, 1527, 1498, 1442, 1501, 1398, 1560, 1454, 1427, 1466, 1356, 1392, 1399, 1660, 1248, 1448, 1344, 1351, 1485, 1475, 1378, 1546, 1346, 1654, 1522, 1469, 1704, 1491, 1547, 1462, 1521, 1444, 1306, 1506, 1376, 1372, 1687, 1507, 1411, 1418, 1404, 1608, 1472, 1420, 1501, 1329, 1671, 1401, 1538, 1512, 1549, 1715, 1299, 1319, 1602, 1366, 1399, 1744, 1415, 1507, 1426, 1617, 1654, 1667, 2195, 1711, 1393, 1309, 1404, 1403, 1388, 1444, 1519, 1436, 1997, 1360, 1512, 1439, 1859, 1552, 1543, 1422, 1654, 1355, 1493, 1494, 1681, 1615, 1461, 1418, 1566, 1487, 1742, 1381, 1518, 1626, 1316, 1564, 1351, 1377, 1378, 1410, 1669, 1232, 1461, 1574, 1679, 1657, 1578, 1520, 1564, 1622, 1532, 1848, 1385, 1645, 1695, 1420, 1765, 1355, 1569, 1628, 1778, 1613, 1360, 1413, 1480, 1538, 1573, 1505, 1642, 1432, 1560, 1485, 1499, 1664, 1480, 1708, 1443, 1486, 1467, 1469, 1733, 1545, 1714, 1363, 1696, 1929, 1280, 1611, 1772, 1429, 1943, 1294, 1503, 1750, 1490, 1588, 1592, 1482, 1616, 1698, 1566, 1486, 1627, 1362, 1418, 1522, 1725, 1696, 1697, 1366, 1491, 1688, 1485, 1482, 1457, 1497, 1570, 1624, 1518, 1474, 1323, 1635, 1564, 1487, 1657, 1679, 1683, 1699, 1388, 1496, 1572, 1521, 1599, 1444, 1544, 1676, 1478, 1623, 1705, 1473, 1659, 1455, 1501, 1525, 1512, 1464, 1579, 1487, 1594, 1525, 1744],
      "WindowCenter": [577.0, 577.0, 574.0, 574.0, 574.0, 573.0, 575.0, 572.0, 574.0, 571.0, 574.0, 573.0, 573.0, 574.0, 574.0, 573.0, 576.0, 576.0, 577.0, 576.0, 576.0, 574.0, 574.0, 576.0, 574.0, 575.0, 574.0, 576.0, 577.0, 577.0, 577.0, 576.0, 576.0, 576.0, 575.0, 576.0, 574.0, 576.0, 574.0, 575.0, 576.0, 575.0, 575.0, 575.0, 576.0, 576.0, 577.0, 576.0, 575.0, 576.0, 575.0, 577.0, 574.0, 575.0, 576.0, 575.0, 576.0, 576.0, 575.0, 574.0, 576.0, 574.0, 575.0, 574.0, 573.0, 576.0, 576.0, 574.0, 575.0, 574.0, 575.0, 574.0, 576.0, 576.0, 577.0, 575.0, 576.0, 575.0, 576.0, 575.0, 575.0, 575.0, 575.0, 576.0, 575.0, 577.0, 576.0, 576.0, 577.0, 576.0, 576.0, 576.0, 575.0, 576.0, 576.0, 575.0, 576.0, 575.0, 576.0, 576.0, 578.0, 575.0, 577.0, 577.0, 577.0, 578.0, 579.0, 578.0, 581.0, 579.0, 580.0, 578.0, 578.0, 579.0, 577.0, 577.0, 577.0, 577.0, 577.0, 576.0, 577.0, 577.0, 578.0, 579.0, 578.0, 577.0, 578.0, 578.0, 579.0, 579.0, 578.0, 579.0, 577.0, 580.0, 578.0, 579.0, 579.0, 578.0, 579.0, 577.0, 577.0, 579.0, 577.0, 579.0, 580.0, 576.0, 579.0, 579.0, 583.0, 582.0, 580.0, 581.0, 577.0, 578.0, 576.0, 578.0, 577.0, 577.0, 578.0, 579.0, 579.0, 581.0, 577.0, 579.0, 579.0, 582.0, 580.0, 579.0, 577.0, 580.0, 578.0, 580.0, 579.0, 580.0, 579.0, 579.0, 579.0, 580.0, 579.0, 580.0, 579.0, 579.0, 579.0, 578.0, 580.0, 579.0, 580.0, 580.0, 580.0, 582.0, 579.0, 584.0, 583.0, 584.0, 582.0, 581.0, 582.0, 581.0, 582.0, 581.0, 583.0, 580.0, 582.0, 582.0, 579.0, 581.0, 578.0, 580.0, 580.0, 580.0, 579.0, 579.0, 580.0, 580.0, 580.0, 581.0, 580.0, 581.0, 580.0, 581.0, 580.0, 580.0, 581.0, 580.0, 581.0, 580.0, 581.0, 581.0, 581.0, 584.0, 582.0, 582.0, 581.0, 584.0, 584.0, 580.0, 582.0, 584.0, 580.0, 582.0, 578.0, 580.0, 581.0, 579.0, 580.0, 580.0, 580.0, 581.0, 581.0, 580.0, 580.0, 580.0, 579.0, 581.0, 583.0, 584.0, 581.0, 581.0, 580.0, 582.0, 583.0, 581.0, 581.0, 581.0, 582.0, 582.0, 582.0, 581.0, 581.0, 581.0, 585.0, 583.0, 582.0, 584.0, 583.0, 583.0, 583.0, 581.0, 582.0, 583.0, 583.0, 583.0, 583.0, 585.0, 585.0, 582.0, 583.0, 584.0, 582.0, 583.0, 581.0, 581.0, 582.0, 582.0, 582.0, 583.0, 583.0, 584.0, 584.0, 584.0],
      "WindowWidth": [1211.0, 1210.0, 1205.0, 1205.0, 1205.0, 1203.0, 1206.0, 1200.0, 1204.0, 1199.0, 1204.0, 1202.0, 1202.0, 1204.0, 1206.0, 1203.0, 1209.0, 1210.0, 1212.0, 1209.0, 1210.0, 1207.0, 1206.0, 1209.0, 1206.0, 1208.0, 1206.0, 1210.0, 1213.0, 1213.0, 1212.0, 1211.0, 1211.0, 1210.0, 1209.0, 1210.0, 1207.0, 1209.0, 1207.0, 1208.0, 1210.0, 1208.0, 1208.0, 1208.0, 1210.0, 1210.0, 1211.0, 1210.0, 1207.0, 1210.0, 1208.0, 1212.0, 1207.0, 1208.0, 1211.0, 1209.0, 1210.0, 1210.0, 1208.0, 1206.0, 1210.0, 1206.0, 1208.0, 1206.0, 1205.0, 1209.0, 1209.0, 1207.0, 1208.0, 1207.0, 1208.0, 1206.0, 1210.0, 1211.0, 1211.0, 1209.0, 1210.0, 1207.0, 1210.0, 1208.0, 1209.0, 1207.0, 1208.0, 1209.0, 1208.0, 1212.0, 1210.0, 1210.0, 1212.0, 1210.0, 1210.0, 1211.0, 1208.0, 1210.0, 1210.0, 1208.0, 1209.0, 1209.0, 1210.0, 1209.0, 1213.0, 1209.0, 1213.0, 1212.0, 1212.0, 1215.0, 1217.0, 1216.0, 1221.0, 1217.0, 1217.0, 1215.0, 1213.0, 1216.0, 1212.0, 1213.0, 1212.0, 1211.0, 1212.0, 1210.0, 1213.0, 1212.0, 1214.0, 1216.0, 1214.0, 1213.0, 1215.0, 1215.0, 1217.0, 1216.0, 1215.0, 1216.0, 1213.0, 1218.0, 1214.0, 1217.0, 1216.0, 1215.0, 1217.0, 1213.0, 1213.0, 1217.0, 1212.0, 1217.0, 1219.0, 1211.0, 1215.0, 1217.0, 1225.0, 1223.0, 1219.0, 1219.0, 1212.0, 1214.0, 1211.0, 1214.0, 1213.0, 1213.0, 1214.0, 1216.0, 1216.0, 1221.0, 1212.0, 1215.0, 1216.0, 1222.0, 1218.0, 1216.0, 1213.0, 1218.0, 1214.0, 1220.0, 1217.0, 1218.0, 1217.0, 1216.0, 1217.0, 1218.0, 1217.0, 1219.0, 1216.0, 1216.0, 1217.0, 1215.0, 1219.0, 1218.0, 1218.0, 1219.0, 1219.0, 1222.0, 1218.0, 1228.0, 1226.0, 1227.0, 1224.0, 1221.0, 1222.0, 1221.0, 1222.0, 1221.0, 1224.0, 1218.0, 1222.0, 1223.0, 1216.0, 1220.0, 1215.0, 1219.0, 1219.0, 1219.0, 1217.0, 1216.0, 1219.0, 1219.0, 1220.0, 1221.0, 1219.0, 1220.0, 1220.0, 1220.0, 1219.0, 1218.0, 1220.0, 1218.0, 1222.0, 1218.0, 1221.0, 1220.0, 1221.0, 1227.0, 1223.0, 1223.0, 1221.0, 1227.0, 1227.0, 1219.0, 1223.0, 1226.0, 1218.0, 1221.0, 1215.0, 1219.0, 1220.0, 1217.0, 1219.0, 1219.0, 1219.0, 1220.0, 1221.0, 1219.0, 1218.0, 1219.0, 1217.0, 1220.0, 1224.0, 1226.0, 1221.0, 1221.0, 1218.0, 1223.0, 1225.0, 1221.0, 1221.0, 1222.0, 1223.0, 1223.0, 1223.0, 1222.0, 1220.0, 1221.0, 1229.0, 1226.0, 1224.0, 1226.0, 1225.0, 1224.0, 1225.0, 1220.0, 1223.0, 1225.0, 1224.0, 1225.0, 1225.0, 1228.0, 1228.0, 1222.0, 1225.0, 1227.0, 1224.0, 1224.0, 1222.0, 1222.0, 1223.0, 1224.0, 1223.0, 1225.0, 1224.0, 1226.0, 1227.0, 1227.0]
    },
    "slices": {}
  }
}