{
  "AcquisitionMatrixPE": 74,
  "AcquisitionNumber": 1,
  "AcquisitionTime": "10:55:26.540000",
  "BandwidthPerPixelPhaseEncode": 27.579,
  "BaseResolution": 74,
  "BodyPartExamined": "HEAD",
  "CoilString": "t:HEA;HEP",
  "ConversionSoftware": "dcm2niix",
  "ConversionSoftwareVersion": "v1.0.20190410  GCC6.3.0",
  "DerivedVendorReportedEchoSpacing": 0.000489993,
  "DeviceSerialNumber": "35256",
  "DwellTime": 2.4e-06,
  "EchoTime": 0.03,
  "EffectiveEchoSpacing": 0.000489993,
  "FlipAngle": 70,
  "ImageOrientationPatientDICOM": [1, 0, 0, 0, 1, 0],
  "ImageType": [
    "ORIGINAL",
    "PRIMARY",
    "M",
    "ND",
    "NORM",
    "MOSAIC"
],
  "ImagingFrequency": 123.223,
  "InPlanePhaseEncodingDirectionDICOM": "COL",
  "InstitutionAddress": "East_Lee_St._2907_Greensboro_NC_US_27401",
  "InstitutionName": "JSNN",
  "InstitutionalDepartmentName": "Department",
  "MRAcquisitionType": "2D",
  "MagneticFieldStrength": 3,
  "Manufacturer": "Siemens",
  "ManufacturersModelName": "TrioTim",
  "Modality": "MR",
  "PartialFourier": 1,
  "PatientPosition": "HFS",
  "PercentPhaseFOV": 100,
  "PhaseEncodingDirection": "j-",
  "PhaseEncodingSteps": 74,
  "PhaseResolution": 1,
  "PixelBandwidth": 2815,
  "ProcedureStepDescription": "head_Cassidy",
  "ProtocolName": "RestingState",
  "PulseSequenceDetails": "%SiemensSeq%_ep2d_bold",
  "ReceiveCoilName": "HeadMatrix",
  "ReconMatrixPE": 74,
  "RepetitionTime": 2,
  "SAR": 0.141954,
  "ScanOptions": "FS",
  "ScanningSequence": "EP",
  "SequenceName": "_epfid2d1_74",
  "SequenceVariant": "SK",
  "SeriesDescription": "RestingState",
  "SeriesNumber": 3,
  "ShimSetting": [1374, 10404, -9018, 175, -58, -1093, -177, -76],
  "SliceThickness": 4,
  "SliceTiming": [1.945, 1.8825, 1.82, 1.755, 1.6925, 1.63, 1.5675, 1.505, 1.4425, 1.38, 1.3175, 1.255, 1.1925, 1.1275, 1.065, 1.0025, 0.94, 0.8775, 0.815, 0.7525, 0.69, 0.6275, 0.565, 0.5025, 0.4375, 0.375, 0.3125, 0.25, 0.1875, 0.125, 0.0625, 0],
  "SoftwareVersions": "syngo_MR_B19",
  "SpacingBetweenSlices": 4,
  "StationName": "JSNNMRI",
  "TaskName": "rest",
  "TotalReadoutTime": 0.0357695,
  "TxRefAmp": 323.784,
  "dcmmeta_affine": [
    [-2.972972869873047, 0.0, 0.0, 105.18071746826172],
    [0.0, 2.972972869873047, 0.0, -96.8005142211914],
    [0.0, 0.0, 4.0, -92.13494110107422],
    [0.0, 0.0, 0.0, 1.0]
],
  "dcmmeta_reorient_transform": [
    [0.0, -1.0, 0.0, 73.0],
    [1.0, 0.0, 0.0, 0.0],
    [0.0, 0.0, 1.0, 0.0],
    [0.0, 0.0, 0.0, 1.0]
],
  "dcmmeta_shape": [74, 74, 32, 300],
  "dcmmeta_slice_dim": 2,
  "dcmmeta_version": 0.6,
  "global": {
    "const": {
      "AcquisitionMatrix": [74, 0, 0, 74],
      "AngioFlag": "N",
      "BitsAllocated": 16,
      "BitsStored": 12,
      "BodyPartExamined": "HEAD",
      "Columns": 444,
      "EchoNumbers": 1,
      "EchoTime": 30.0,
      "EchoTrainLength": 1,
      "FlipAngle": 70.0,
      "HighBit": 11,
      "ImageOrientationPatient": [1.0, 0.0, 0.0, 0.0, 1.0, 0.0],
      "ImagePositionPatient": [-655.18069982529, -670.22648334503, -92.134941101074],
      "ImageType": [
        "ORIGINAL",
        "PRIMARY",
        "M",
        "ND",
        "NORM",
        "MOSAIC"
],
      "ImagedNucleus": "1H",
      "ImagingFrequency": 123.223311,
      "InPlanePhaseEncodingDirection": "COL",
      "MRAcquisitionType": "2D",
      "MagneticFieldStrength": 3.0,
      "Manufacturer": "SIEMENS",
      "ManufacturerModelName": "TrioTim",
      "Modality": "MR",
      "NumberOfAverages": 1.0,
      "NumberOfPhaseEncodingSteps": 74,
      "PercentPhaseFieldOfView": 100.0,
      "PercentSampling": 100.0,
      "PerformedProcedureStepStartTime": "104718.573000",
      "PhotometricInterpretation": "MONOCHROME2",
      "PixelBandwidth": 2815.0,
      "PixelRepresentation": 0,
      "PixelSpacing": [2.972972869873, 2.972972869873],
      "ProtocolName": "RestingState",
      "RepetitionTime": 2000.0,
      "Rows": 444,
      "SAR": 0.14195418311758,
      "SamplesPerPixel": 1,
      "ScanOptions": "FS",
      "ScanningSequence": "EP",
      "SequenceName": "*epfid2d1_74",
      "SequenceVariant": "SK",
      "SeriesDescription": "RestingState",
      "SeriesNumber": 3,
      "SeriesTime": "105624.827000",
      "SliceLocation": -92.134941101074,
      "SliceThickness": 4.0,
      "SmallestImagePixelValue": 0,
      "SoftwareVersions": "syngo MR B19",
      "SpacingBetweenSlices": 4.0000000615274,
      "SpecificCharacterSet": "ISO_IR 100",
      "StudyID": "1",
      "StudyTime": "104718.518000",
      "TransmitCoilName": "Body",
      "VariableFlipAngleFlag": "N",
      "WindowCenterWidthExplanation": "Algo1",
      "dBdt": 0.0},
    "slices": {}
  },
  "time": {
    "samples": {
      "AcquisitionNumber": [1, 2, 3, 4, 5, 6, 7, 8, 9, 10, 11, 12, 13, 14, 15, 16, 17, 18, 19, 20, 21, 22, 23, 24, 25, 26, 27, 28, 29, 30, 31, 32, 33, 34, 35, 36, 37, 38, 39, 40, 41, 42, 43, 44, 45, 46, 47, 48, 49, 50, 51, 52, 53, 54, 55, 56, 57, 58, 59, 60, 61, 62, 63, 64, 65, 66, 67, 68, 69, 70, 71, 72, 73, 74, 75, 76, 77, 78, 79, 80, 81, 82, 83, 84, 85, 86, 87, 88, 89, 90, 91, 92, 93, 94, 95, 96, 97, 98, 99, 100, 101, 102, 103, 104, 105, 106, 107, 108, 109, 110, 111, 112, 113, 114, 115, 116, 117, 118, 119, 120, 121, 122, 123, 124, 125, 126, 127, 128, 129, 130, 131, 132, 133, 134, 135, 136, 137, 138, 139, 140, 141, 142, 143, 144, 145, 146, 147, 148, 149, 150, 151, 152, 153, 154, 155, 156, 157, 158, 159, 160, 161, 162, 163, 164, 165, 166, 167, 168, 169, 170, 171, 172, 173, 174, 175, 176, 177, 178, 179, 180, 181, 182, 183, 184, 185, 186, 187, 188, 189, 190, 191, 192, 193, 194, 195, 196, 197, 198, 199, 200, 201, 202, 203, 204, 205, 206, 207, 208, 209, 210, 211, 212, 213, 214, 215, 216, 217, 218, 219, 220, 221, 222, 223, 224, 225, 226, 227, 228, 229, 230, 231, 232, 233, 234, 235, 236, 237, 238, 239, 240, 241, 242, 243, 244, 245, 246, 247, 248, 249, 250, 251, 252, 253, 254, 255, 256, 257, 258, 259, 260, 261, 262, 263, 264, 265, 266, 267, 268, 269, 270, 271, 272, 273, 274, 275, 276, 277, 278, 279, 280, 281, 282, 283, 284, 285, 286, 287, 288, 289, 290, 291, 292, 293, 294, 295, 296, 297, 298, 299, 300],
      "AcquisitionTime": ["105526.540000", "105528.547500", "105530.555000", "105532.562500", "105534.572500", "105536.580000", "105538.587500", "105540.595000", "105542.602500", "105544.612500", "105546.620000", "105548.627500", "105550.635000", "105552.642500", "105554.652500", "105556.660000", "105558.667500", "105600.675000", "105602.685000", "105604.692500", "105606.700000", "105608.707500", "105610.715000", "105612.725000", "105614.732500", "105616.740000", "105618.747500", "105620.755000", "105622.765000", "105624.772500", "105626.780000", "105628.787500", "105630.797500", "105632.805000", "105634.812500", "105636.820000", "105638.827500", "105640.837500", "105642.845000", "105644.852500", "105646.860000", "105648.867500", "105650.877500", "105652.885000", "105654.892500", "105656.900000", "105658.907500", "105700.917500", "105702.925000", "105704.932500", "105706.940000", "105708.950000", "105710.957500", "105712.965000", "105714.972500", "105716.980000", "105718.990000", "105720.997500", "105723.005000", "105725.012500", "105727.020000", "105729.030000", "105731.037500", "105733.045000", "105735.052500", "105737.062500", "105739.070000", "105741.077500", "105743.085000", "105745.092500", "105747.102500", "105749.110000", "105751.117500", "105753.125000", "105755.132500", "105757.142500", "105759.150000", "105801.157500", "105803.165000", "105805.175000", "105807.182500", "105809.190000", "105811.197500", "105813.205000", "105815.215000", "105817.222500", "105819.230000", "105821.237500", "105823.245000", "105825.255000", "105827.262500", "105829.270000", "105831.277500", "105833.285000", "105835.295000", "105837.302500", "105839.310000", "105841.317500", "105843.327500", "105845.335000", "105847.342500", "105849.350000", "105851.357500", "105853.367500", "105855.375000", "105857.382500", "105859.390000", "105901.397500", "105903.407500", "105905.415000", "105907.422500", "105909.430000", "105911.440000", "105913.447500", "105915.455000", "105917.462500", "105919.470000", "105921.480000", "105923.487500", "105925.495000", "105927.502500", "105929.510000", "105931.520000", "105933.527500", "105935.535000", "105937.542500", "105939.552500", "105941.560000", "105943.567500", "105945.575000", "105947.582500", "105949.592500", "105951.600000", "105953.607500", "105955.615000", "105957.622500", "105959.632500", "110001.640000", "110003.647500", "110005.655000", "110007.662500", "110009.672500", "110011.680000", "110013.687500", "110015.695000", "110017.705000", "110019.712500", "110021.720000", "110023.727500", "110025.735000", "110027.745000", "110029.752500", "110031.760000", "110033.767500", "110035.775000", "110037.785000", "110039.792500", "110041.800000", "110043.807500", "110045.817500", "110047.825000", "110049.832500", "110051.840000", "110053.847500", "110055.857500", "110057.865000", "110059.872500", "110101.880000", "110103.887500", "110105.897500", "110107.905000", "110109.912500", "110111.920000", "110113.930000", "110115.937500", "110117.945000", "110119.952500", "110121.960000", "110123.970000", "110125.977500", "110127.985000", "110129.992500", "110132.000000", "110134.010000", "110136.017500", "110138.025000", "110140.032500", "110142.040000", "110144.050000", "110146.057500", "110148.065000", "110150.072500", "110152.082500", "110154.090000", "110156.097500", "110158.105000", "110200.112500", "110202.122500", "110204.130000", "110206.137500", "110208.145000", "110210.152500", "110212.162500", "110214.170000", "110216.177500", "110218.185000", "110220.195000", "110222.202500", "110224.210000", "110226.217500", "110228.225000", "110230.235000", "110232.242500", "110234.250000", "110236.257500", "110238.265000", "110240.275000", "110242.282500", "110244.290000", "110246.297500", "110248.307500", "110250.315000", "110252.322500", "110254.330000", "110256.337500", "110258.347500", "110300.355000", "110302.362500", "110304.370000", "110306.377500", "110308.387500", "110310.395000", "110312.402500", "110314.410000", "110316.420000", "110318.427500", "110320.435000", "110322.442500", "110324.450000", "110326.460000", "110328.467500", "110330.475000", "110332.482500", "110334.490000", "110336.500000", "110338.507500", "110340.515000", "110342.522500", "110344.530000", "110346.540000", "110348.547500", "110350.555000", "110352.562500", "110354.572500", "110356.580000", "110358.587500", "110400.595000", "110402.602500", "110404.612500", "110406.620000", "110408.627500", "110410.635000", "110412.642500", "110414.652500", "110416.660000", "110418.667500", "110420.675000", "110422.685000", "110424.692500", "110426.700000", "110428.707500", "110430.715000", "110432.725000", "110434.732500", "110436.740000", "110438.747500", "110440.755000", "110442.765000", "110444.772500", "110446.780000", "110448.787500", "110450.797500", "110452.805000", "110454.812500", "110456.820000", "110458.827500", "110500.837500", "110502.845000", "110504.852500", "110506.860000", "110508.867500", "110510.877500", "110512.885000", "110514.892500", "110516.900000", "110518.907500", "110520.917500", "110522.925000", "110524.932500", "110526.940000"],
      "ContentTime": ["105624.830000", "105624.832000", "105624.835000", "105624.837000", "105624.840000", "105624.840000", "105624.842000", "105624.852000", "105624.852000", "105624.855000", "105624.857000", "105624.860000", "105624.860000", "105624.862000", "105624.865000", "105624.867000", "105624.867000", "105624.870000", "105624.872000", "105624.875000", "105624.875000", "105624.877000", "105624.880000", "105624.882000", "105624.882000", "105624.885000", "105624.887000", "105624.890000", "105624.890000", "105704.823000", "105704.825000", "105704.828000", "105704.830000", "105704.833000", "105704.833000", "105704.835000", "105704.838000", "105704.840000", "105704.840000", "105704.843000", "105704.845000", "105704.848000", "105704.848000", "105704.850000", "105704.853000", "105704.855000", "105704.855000", "105704.858000", "105704.860000", "105744.824000", "105744.826000", "105744.829000", "105744.831000", "105744.834000", "105744.834000", "105744.836000", "105744.839000", "105744.841000", "105744.841000", "105744.844000", "105744.846000", "105744.849000", "105744.849000", "105744.851000", "105744.854000", "105744.856000", "105744.856000", "105744.859000", "105744.861000", "105824.824000", "105824.827000", "105824.829000", "105824.832000", "105824.834000", "105824.834000", "105824.837000", "105824.839000", "105824.842000", "105824.842000", "105824.844000", "105824.847000", "105824.849000", "105824.849000", "105824.852000", "105824.854000", "105824.857000", "105824.857000", "105824.859000", "105824.862000", "105904.825000", "105904.827000", "105904.830000", "105904.832000", "105904.835000", "105904.835000", "105904.837000", "105904.840000", "105904.842000", "105904.842000", "105904.845000", "105904.847000", "105904.850000", "105904.850000", "105904.852000", "105904.855000", "105904.857000", "105904.860000", "105904.860000", "105904.862000", "105944.823000", "105944.825000", "105944.828000", "105944.830000", "105944.833000", "105944.833000", "105944.835000", "105944.838000", "105944.840000", "105944.840000", "105944.843000", "105944.845000", "105944.848000", "105944.848000", "105944.850000", "105944.853000", "105944.855000", "105944.855000", "105944.858000", "105944.860000", "110024.824000", "110024.826000", "110024.829000", "110024.831000", "110024.834000", "110024.834000", "110024.836000", "110024.839000", "110024.841000", "110024.841000", "110024.844000", "110024.846000", "110024.849000", "110024.849000", "110024.851000", "110024.854000", "110024.856000", "110024.856000", "110024.859000", "110024.861000", "110104.824000", "110104.827000", "110104.829000", "110104.832000", "110104.834000", "110104.834000", "110104.837000", "110104.839000", "110104.842000", "110104.842000", "110104.844000", "110104.847000", "110104.849000", "110104.849000", "110104.852000", "110104.854000", "110104.857000", "110104.857000", "110104.859000", "110104.862000", "110144.825000", "110144.827000", "110144.830000", "110144.832000", "110144.835000", "110144.835000", "110144.837000", "110144.840000", "110144.842000", "110144.850000", "110144.850000", "110144.852000", "110144.855000", "110144.857000", "110144.857000", "110144.860000", "110144.862000", "110144.865000", "110144.865000", "110144.867000", "110224.823000", "110224.825000", "110224.828000", "110224.830000", "110224.833000", "110224.833000", "110224.835000", "110224.838000", "110224.840000", "110224.840000", "110224.843000", "110224.845000", "110224.848000", "110224.848000", "110224.850000", "110224.853000", "110224.855000", "110224.858000", "110224.858000", "110224.860000", "110304.823000", "110304.826000", "110304.828000", "110304.831000", "110304.833000", "110304.833000", "110304.836000", "110304.838000", "110304.841000", "110304.841000", "110304.843000", "110304.846000", "110304.848000", "110304.848000", "110304.851000", "110304.853000", "110304.856000", "110304.856000", "110304.858000", "110304.861000", "110344.824000", "110344.827000", "110344.834000", "110344.834000", "110344.837000", "110344.839000", "110344.842000", "110344.844000", "110344.844000", "110344.847000", "110344.849000", "110344.852000", "110344.852000", "110344.854000", "110344.857000", "110344.859000", "110344.859000", "110344.862000", "110344.864000", "110344.867000", "110424.825000", "110424.827000", "110424.830000", "110424.832000", "110424.835000", "110424.835000", "110424.837000", "110424.840000", "110424.842000", "110424.842000", "110424.845000", "110424.847000", "110424.850000", "110424.850000", "110424.852000", "110424.855000", "110424.857000", "110424.860000", "110424.860000", "110424.862000", "110504.823000", "110504.825000", "110504.828000", "110504.830000", "110504.833000", "110504.833000", "110504.835000", "110504.838000", "110504.840000", "110504.840000", "110504.843000", "110504.845000", "110504.848000", "110504.848000", "110504.850000", "110504.853000", "110504.855000", "110504.858000", "110504.858000", "110504.860000", "110526.236000", "110526.236000", "110526.238000", "110526.241000", "110526.243000", "110526.246000", "110526.246000", "110526.248000", "110526.251000", "110526.253000", "110526.253000"],
      "InstanceCreationTime": ["105624.830000", "105624.832000", "105624.835000", "105624.837000", "105624.840000", "105624.840000", "105624.842000", "105624.852000", "105624.852000", "105624.855000", "105624.857000", "105624.860000", "105624.860000", "105624.862000", "105624.865000", "105624.867000", "105624.867000", "105624.870000", "105624.872000", "105624.875000", "105624.875000", "105624.877000", "105624.880000", "105624.882000", "105624.882000", "105624.885000", "105624.887000", "105624.890000", "105624.890000", "105704.823000", "105704.825000", "105704.828000", "105704.830000", "105704.833000", "105704.833000", "105704.835000", "105704.838000", "105704.840000", "105704.840000", "105704.843000", "105704.845000", "105704.848000", "105704.848000", "105704.850000", "105704.853000", "105704.855000", "105704.855000", "105704.858000", "105704.860000", "105744.824000", "105744.826000", "105744.829000", "105744.831000", "105744.834000", "105744.834000", "105744.836000", "105744.839000", "105744.841000", "105744.841000", "105744.844000", "105744.846000", "105744.849000", "105744.849000", "105744.851000", "105744.854000", "105744.856000", "105744.856000", "105744.859000", "105744.861000", "105824.824000", "105824.827000", "105824.829000", "105824.832000", "105824.834000", "105824.834000", "105824.837000", "105824.839000", "105824.842000", "105824.842000", "105824.844000", "105824.847000", "105824.849000", "105824.849000", "105824.852000", "105824.854000", "105824.857000", "105824.857000", "105824.859000", "105824.862000", "105904.825000", "105904.827000", "105904.830000", "105904.832000", "105904.835000", "105904.835000", "105904.837000", "105904.840000", "105904.842000", "105904.842000", "105904.845000", "105904.847000", "105904.850000", "105904.850000", "105904.852000", "105904.855000", "105904.857000", "105904.860000", "105904.860000", "105904.862000", "105944.823000", "105944.825000", "105944.828000", "105944.830000", "105944.833000", "105944.833000", "105944.835000", "105944.838000", "105944.840000", "105944.840000", "105944.843000", "105944.845000", "105944.848000", "105944.848000", "105944.850000", "105944.853000", "105944.855000", "105944.855000", "105944.858000", "105944.860000", "110024.824000", "110024.826000", "110024.829000", "110024.831000", "110024.834000", "110024.834000", "110024.836000", "110024.839000", "110024.841000", "110024.841000", "110024.844000", "110024.846000", "110024.849000", "110024.849000", "110024.851000", "110024.854000", "110024.856000", "110024.856000", "110024.859000", "110024.861000", "110104.824000", "110104.827000", "110104.829000", "110104.832000", "110104.834000", "110104.834000", "110104.837000", "110104.839000", "110104.842000", "110104.842000", "110104.844000", "110104.847000", "110104.849000", "110104.849000", "110104.852000", "110104.854000", "110104.857000", "110104.857000", "110104.859000", "110104.862000", "110144.825000", "110144.827000", "110144.830000", "110144.832000", "110144.835000", "110144.835000", "110144.837000", "110144.840000", "110144.842000", "110144.850000", "110144.850000", "110144.852000", "110144.855000", "110144.857000", "110144.857000", "110144.860000", "110144.862000", "110144.865000", "110144.865000", "110144.867000", "110224.823000", "110224.825000", "110224.828000", "110224.830000", "110224.833000", "110224.833000", "110224.835000", "110224.838000", "110224.840000", "110224.840000", "110224.843000", "110224.845000", "110224.848000", "110224.848000", "110224.850000", "110224.853000", "110224.855000", "110224.858000", "110224.858000", "110224.860000", "110304.823000", "110304.826000", "110304.828000", "110304.831000", "110304.833000", "110304.833000", "110304.836000", "110304.838000", "110304.841000", "110304.841000", "110304.843000", "110304.846000", "110304.848000", "110304.848000", "110304.851000", "110304.853000", "110304.856000", "110304.856000", "110304.858000", "110304.861000", "110344.824000", "110344.827000", "110344.834000", "110344.834000", "110344.837000", "110344.839000", "110344.842000", "110344.844000", "110344.844000", "110344.847000", "110344.849000", "110344.852000", "110344.852000", "110344.854000", "110344.857000", "110344.859000", "110344.859000", "110344.862000", "110344.864000", "110344.867000", "110424.825000", "110424.827000", "110424.830000", "110424.832000", "110424.835000", "110424.835000", "110424.837000", "110424.840000", "110424.842000", "110424.842000", "110424.845000", "110424.847000", "110424.850000", "110424.850000", "110424.852000", "110424.855000", "110424.857000", "110424.860000", "110424.860000", "110424.862000", "110504.823000", "110504.825000", "110504.828000", "110504.830000", "110504.833000", "110504.833000", "110504.835000", "110504.838000", "110504.840000", "110504.840000", "110504.843000", "110504.845000", "110504.848000", "110504.848000", "110504.850000", "110504.853000", "110504.855000", "110504.858000", "110504.858000", "110504.860000", "110526.236000", "110526.236000", "110526.238000", "110526.241000", "110526.243000", "110526.246000", "110526.246000", "110526.248000", "110526.251000", "110526.253000", "110526.253000"],
      "InstanceNumber": [1, 2, 3, 4, 5, 6, 7, 8, 9, 10, 11, 12, 13, 14, 15, 16, 17, 18, 19, 20, 21, 22, 23, 24, 25, 26, 27, 28, 29, 30, 31, 32, 33, 34, 35, 36, 37, 38, 39, 40, 41, 42, 43, 44, 45, 46, 47, 48, 49, 50, 51, 52, 53, 54, 55, 56, 57, 58, 59, 60, 61, 62, 63, 64, 65, 66, 67, 68, 69, 70, 71, 72, 73, 74, 75, 76, 77, 78, 79, 80, 81, 82, 83, 84, 85, 86, 87, 88, 89, 90, 91, 92, 93, 94, 95, 96, 97, 98, 99, 100, 101, 102, 103, 104, 105, 106, 107, 108, 109, 110, 111, 112, 113, 114, 115, 116, 117, 118, 119, 120, 121, 122, 123, 124, 125, 126, 127, 128, 129, 130, 131, 132, 133, 134, 135, 136, 137, 138, 139, 140, 141, 142, 143, 144, 145, 146, 147, 148, 149, 150, 151, 152, 153, 154, 155, 156, 157, 158, 159, 160, 161, 162, 163, 164, 165, 166, 167, 168, 169, 170, 171, 172, 173, 174, 175, 176, 177, 178, 179, 180, 181, 182, 183, 184, 185, 186, 187, 188, 189, 190, 191, 192, 193, 194, 195, 196, 197, 198, 199, 200, 201, 202, 203, 204, 205, 206, 207, 208, 209, 210, 211, 212, 213, 214, 215, 216, 217, 218, 219, 220, 221, 222, 223, 224, 225, 226, 227, 228, 229, 230, 231, 232, 233, 234, 235, 236, 237, 238, 239, 240, 241, 242, 243, 244, 245, 246, 247, 248, 249, 250, 251, 252, 253, 254, 255, 256, 257, 258, 259, 260, 261, 262, 263, 264, 265, 266, 267, 268, 269, 270, 271, 272, 273, 274, 275, 276, 277, 278, 279, 280, 281, 282, 283, 284, 285, 286, 287, 288, 289, 290, 291, 292, 293, 294, 295, 296, 297, 298, 299, 300],
      "LargestImagePixelValue": [1394, 1317, 1350, 1354, 1399, 1381, 1351, 1354, 1322, 1498, 1331, 1393, 1364, 1296, 1312, 1290, 1291, 1283, 1331, 1278, 1302, 1280, 1334, 1292, 1360, 1270, 1299, 1331, 1363, 1415, 1390, 1368, 1276, 1325, 1263, 1275, 1334, 1392, 1341, 1473, 1367, 1417, 1300, 1299, 1305, 1273, 1276, 1339, 1297, 1329, 1290, 1305, 1296, 1359, 1270, 1301, 1277, 1341, 1287, 1334, 1317, 1308, 1290, 1287, 1290, 1316, 1295, 1308, 1275, 1300, 1344, 1286, 1345, 1295, 1360, 1304, 1302, 1368, 1273, 1349, 1254, 1293, 1337, 1493, 1408, 1503, 1381, 1316, 1436, 1327, 1436, 1334, 1487, 1438, 1419, 1311, 1312, 1288, 1328, 1273, 1347, 1281, 1323, 1270, 1326, 1276, 1317, 1310, 1274, 1329, 1272, 1371, 1403, 1374, 1535, 1412, 1488, 1329, 1418, 1398, 1350, 1442, 1359, 1450, 1344, 1389, 1488, 1328, 1455, 1453, 1495, 1358, 1299, 1318, 1304, 1312, 1307, 1299, 1328, 1456, 1384, 1545, 1332, 1381, 1363, 1344, 1331, 1435, 1465, 1415, 1523, 1455, 1444, 1445, 1359, 1528, 1359, 1560, 1381, 1435, 1345, 1322, 1334, 1432, 1344, 1369, 1308, 1414, 1291, 1313, 1304, 1306, 1318, 1387, 1461, 1502, 1389, 1427, 1423, 1451, 1426, 1515, 1565, 1575, 1407, 1493, 1429, 1511, 1467, 1596, 1488, 1391, 1461, 1513, 1468, 1471, 1293, 1295, 1339, 1449, 1526, 1512, 1346, 1430, 1311, 1365, 1359, 1463, 1410, 1301, 1307, 1430, 1403, 1447, 1555, 1333, 1475, 1382, 1680, 1364, 1354, 1327, 1354, 1328, 1322, 1345, 1427, 1380, 1518, 1422, 1409, 1507, 1402, 1431, 1516, 1363, 1367, 1342, 1320, 1465, 1338, 1326, 1340, 1409, 1543, 1361, 1472, 1314, 1351, 1333, 1371, 1376, 1475, 1364, 1516, 1297, 1572, 1696, 1400, 1577, 1349, 1365, 1372, 1363, 1460, 1398, 1495, 1402, 1398, 1398, 1368, 1448, 1380, 1382, 1428, 1448, 1511, 1418, 1527, 1305, 1498, 1397, 1368, 1500, 1373, 1499, 1330, 1497, 1326, 1610, 1331, 1459, 1393, 1311, 1510, 1382, 1405, 1516, 1392, 1391],
      "WindowCenter": [523.0, 521.0, 519.0, 518.0, 518.0, 520.0, 519.0, 521.0, 521.0, 521.0, 520.0, 519.0, 520.0, 518.0, 519.0, 518.0, 520.0, 518.0, 520.0, 520.0, 521.0, 519.0, 520.0, 520.0, 520.0, 518.0, 520.0, 522.0, 521.0, 520.0, 519.0, 519.0, 519.0, 519.0, 519.0, 520.0, 521.0, 521.0, 521.0, 521.0, 520.0, 520.0, 520.0, 520.0, 520.0, 519.0, 520.0, 521.0, 520.0, 521.0, 521.0, 521.0, 521.0, 522.0, 520.0, 520.0, 519.0, 522.0, 521.0, 522.0, 521.0, 521.0, 520.0, 521.0, 520.0, 522.0, 521.0, 522.0, 521.0, 522.0, 521.0, 520.0, 522.0, 521.0, 522.0, 520.0, 522.0, 522.0, 521.0, 523.0, 521.0, 523.0, 523.0, 524.0, 521.0, 523.0, 521.0, 522.0, 523.0, 523.0, 523.0, 522.0, 524.0, 524.0, 522.0, 521.0, 522.0, 520.0, 523.0, 523.0, 524.0, 522.0, 524.0, 522.0, 523.0, 521.0, 523.0, 522.0, 521.0, 523.0, 522.0, 524.0, 523.0, 524.0, 526.0, 524.0, 525.0, 522.0, 525.0, 524.0, 525.0, 525.0, 524.0, 526.0, 524.0, 525.0, 525.0, 523.0, 526.0, 527.0, 526.0, 524.0, 522.0, 523.0, 522.0, 524.0, 523.0, 525.0, 525.0, 526.0, 525.0, 526.0, 524.0, 525.0, 524.0, 526.0, 526.0, 527.0, 526.0, 526.0, 527.0, 525.0, 526.0, 526.0, 526.0, 527.0, 525.0, 527.0, 525.0, 526.0, 525.0, 526.0, 525.0, 528.0, 527.0, 528.0, 525.0, 527.0, 525.0, 526.0, 525.0, 527.0, 525.0, 527.0, 526.0, 527.0, 526.0, 527.0, 528.0, 528.0, 528.0, 528.0, 529.0, 528.0, 526.0, 528.0, 527.0, 529.0, 528.0, 530.0, 529.0, 529.0, 529.0, 529.0, 527.0, 528.0, 526.0, 527.0, 527.0, 529.0, 528.0, 528.0, 526.0, 528.0, 527.0, 528.0, 527.0, 529.0, 528.0, 526.0, 528.0, 529.0, 529.0, 528.0, 530.0, 528.0, 530.0, 529.0, 531.0, 528.0, 527.0, 527.0, 528.0, 528.0, 528.0, 528.0, 529.0, 528.0, 530.0, 528.0, 529.0, 530.0, 532.0, 530.0, 531.0, 528.0, 529.0, 527.0, 529.0, 530.0, 530.0, 530.0, 531.0, 531.0, 531.0, 528.0, 530.0, 528.0, 529.0, 529.0, 530.0, 529.0, 531.0, 530.0, 533.0, 530.0, 532.0, 531.0, 528.0, 529.0, 526.0, 529.0, 529.0, 530.0, 529.0, 529.0, 530.0, 529.0, 530.0, 530.0, 530.0, 529.0, 530.0, 528.0, 530.0, 529.0, 530.0, 528.0, 530.0, 527.0, 531.0, 529.0, 529.0, 530.0, 530.0, 531.0, 529.0, 530.0, 529.0, 531.0, 529.0, 531.0, 529.0, 530.0, 531.0, 530.0, 530.0, 531.0, 529.0, 530.0],
      "WindowWidth": [1101.0, 1096.0, 1091.0, 1089.0, 1088.0, 1093.0, 1090.0, 1095.0, 1096.0, 1095.0, 1093.0, 1090.0, 1092.0, 1089.0, 1091.0, 1089.0, 1092.0, 1088.0, 1093.0, 1093.0, 1094.0, 1091.0, 1092.0, 1092.0, 1093.0, 1090.0, 1092.0, 1097.0, 1096.0, 1093.0, 1090.0, 1090.0, 1092.0, 1091.0, 1091.0, 1092.0, 1095.0, 1095.0, 1095.0, 1095.0, 1093.0, 1092.0, 1092.0, 1092.0, 1093.0, 1091.0, 1094.0, 1094.0, 1093.0, 1094.0, 1094.0, 1096.0, 1095.0, 1096.0, 1092.0, 1093.0, 1091.0, 1096.0, 1094.0, 1097.0, 1096.0, 1096.0, 1093.0, 1095.0, 1092.0, 1096.0, 1094.0, 1098.0, 1096.0, 1097.0, 1096.0, 1094.0, 1097.0, 1094.0, 1097.0, 1093.0, 1097.0, 1096.0, 1095.0, 1099.0, 1095.0, 1099.0, 1098.0, 1101.0, 1095.0, 1099.0, 1095.0, 1097.0, 1098.0, 1100.0, 1098.0, 1097.0, 1101.0, 1101.0, 1098.0, 1094.0, 1097.0, 1093.0, 1100.0, 1098.0, 1102.0, 1098.0, 1101.0, 1097.0, 1100.0, 1096.0, 1099.0, 1097.0, 1095.0, 1099.0, 1097.0, 1101.0, 1100.0, 1100.0, 1104.0, 1101.0, 1103.0, 1098.0, 1102.0, 1101.0, 1104.0, 1103.0, 1102.0, 1104.0, 1100.0, 1103.0, 1103.0, 1100.0, 1105.0, 1108.0, 1105.0, 1103.0, 1098.0, 1100.0, 1097.0, 1102.0, 1101.0, 1103.0, 1103.0, 1106.0, 1103.0, 1105.0, 1100.0, 1103.0, 1102.0, 1105.0, 1106.0, 1108.0, 1104.0, 1106.0, 1107.0, 1103.0, 1106.0, 1104.0, 1105.0, 1107.0, 1103.0, 1108.0, 1103.0, 1105.0, 1103.0, 1106.0, 1103.0, 1110.0, 1109.0, 1109.0, 1105.0, 1108.0, 1103.0, 1106.0, 1104.0, 1108.0, 1104.0, 1108.0, 1106.0, 1107.0, 1105.0, 1107.0, 1109.0, 1109.0, 1109.0, 1109.0, 1111.0, 1108.0, 1106.0, 1109.0, 1107.0, 1111.0, 1109.0, 1113.0, 1111.0, 1111.0, 1110.0, 1111.0, 1108.0, 1109.0, 1106.0, 1109.0, 1109.0, 1112.0, 1109.0, 1108.0, 1105.0, 1110.0, 1108.0, 1110.0, 1109.0, 1111.0, 1109.0, 1106.0, 1110.0, 1111.0, 1113.0, 1110.0, 1113.0, 1109.0, 1113.0, 1112.0, 1116.0, 1110.0, 1108.0, 1108.0, 1110.0, 1110.0, 1111.0, 1110.0, 1111.0, 1109.0, 1113.0, 1111.0, 1113.0, 1113.0, 1118.0, 1114.0, 1116.0, 1110.0, 1111.0, 1109.0, 1113.0, 1113.0, 1114.0, 1114.0, 1116.0, 1115.0, 1117.0, 1110.0, 1113.0, 1109.0, 1112.0, 1112.0, 1113.0, 1113.0, 1115.0, 1114.0, 1119.0, 1115.0, 1118.0, 1114.0, 1111.0, 1111.0, 1105.0, 1111.0, 1111.0, 1114.0, 1112.0, 1112.0, 1114.0, 1111.0, 1114.0, 1113.0, 1114.0, 1112.0, 1114.0, 1111.0, 1114.0, 1112.0, 1114.0, 1110.0, 1114.0, 1109.0, 1115.0, 1112.0, 1112.0, 1114.0, 1115.0, 1115.0, 1112.0, 1115.0, 1111.0, 1116.0, 1111.0, 1116.0, 1113.0, 1114.0, 1116.0, 1113.0, 1115.0, 1115.0, 1112.0, 1115.0]
    },
    "slices": {}
  }
}