{
  "AcquisitionMatrixPE": 74,
  "AcquisitionNumber": 1,
  "AcquisitionTime": "10:09:4.640000",
  "BandwidthPerPixelPhaseEncode": 27.579,
  "BaseResolution": 74,
  "BodyPartExamined": "HEAD",
  "CoilString": "t:HEA;HEP",
  "ConversionSoftware": "dcm2niix",
  "ConversionSoftwareVersion": "v1.0.20190410  GCC6.3.0",
  "DerivedVendorReportedEchoSpacing": 0.000489993,
  "DeviceSerialNumber": "35256",
  "DwellTime": 2.4e-06,
  "EchoTime": 0.03,
  "EffectiveEchoSpacing": 0.000489993,
  "FlipAngle": 70,
  "ImageOrientationPatientDICOM": [1, 0, 0, 0, 1, 0],
  "ImageType": [
    "ORIGINAL",
    "PRIMARY",
    "M",
    "ND",
    "NORM",
    "MOSAIC"
],
  "ImagingFrequency": 123.223,
  "InPlanePhaseEncodingDirectionDICOM": "COL",
  "InstitutionAddress": "East_Lee_St._2907_Greensboro_NC_US_27401",
  "InstitutionName": "JSNN",
  "InstitutionalDepartmentName": "Department",
  "MRAcquisitionType": "2D",
  "MagneticFieldStrength": 3,
  "Manufacturer": "Siemens",
  "ManufacturersModelName": "TrioTim",
  "Modality": "MR",
  "PartialFourier": 1,
  "PatientPosition": "HFS",
  "PercentPhaseFOV": 100,
  "PhaseEncodingDirection": "j-",
  "PhaseEncodingSteps": 74,
  "PhaseResolution": 1,
  "PixelBandwidth": 2815,
  "ProcedureStepDescription": "head_Cassidy",
  "ProtocolName": "RestingState",
  "PulseSequenceDetails": "%SiemensSeq%_ep2d_bold",
  "ReceiveCoilName": "HeadMatrix",
  "ReconMatrixPE": 74,
  "RepetitionTime": 2,
  "SAR": 0.139886,
  "ScanOptions": "FS",
  "ScanningSequence": "EP",
  "SequenceName": "_epfid2d1_74",
  "SequenceVariant": "SK",
  "SeriesDescription": "RestingState",
  "SeriesNumber": 3,
  "ShimSetting": [1287, 10432, -8815, 210, 3, -354, 122, 103],
  "SliceThickness": 4,
  "SliceTiming": [1.945, 1.8825, 1.82, 1.7575, 1.695, 1.6325, 1.57, 1.5075, 1.4425, 1.38, 1.3175, 1.255, 1.1925, 1.13, 1.0675, 1.005, 0.9425, 0.88, 0.815, 0.7525, 0.69, 0.6275, 0.565, 0.5025, 0.44, 0.3775, 0.315, 0.2525, 0.19, 0.125, 0.0625, 0],
  "SoftwareVersions": "syngo_MR_B19",
  "SpacingBetweenSlices": 4,
  "StationName": "JSNNMRI",
  "TaskName": "rest",
  "TotalReadoutTime": 0.0357695,
  "TxRefAmp": 326.906,
  "dcmmeta_affine": [
    [-2.972972869873047, 0.0, 0.0, 105.18071746826172],
    [0.0, 2.972972869873047, 0.0, -92.02461242675781],
    [0.0, 0.0, 4.0, -43.44096374511719],
    [0.0, 0.0, 0.0, 1.0]
],
  "dcmmeta_reorient_transform": [
    [0.0, -1.0, 0.0, 73.0],
    [1.0, 0.0, 0.0, 0.0],
    [0.0, 0.0, 1.0, 0.0],
    [0.0, 0.0, 0.0, 1.0]
],
  "dcmmeta_shape": [74, 74, 32, 300],
  "dcmmeta_slice_dim": 2,
  "dcmmeta_version": 0.6,
  "global": {
    "const": {
      "AcquisitionMatrix": [74, 0, 0, 74],
      "AngioFlag": "N",
      "BitsAllocated": 16,
      "BitsStored": 12,
      "BodyPartExamined": "HEAD",
      "Columns": 444,
      "EchoNumbers": 1,
      "EchoTime": 30.0,
      "EchoTrainLength": 1,
      "FlipAngle": 70.0,
      "HighBit": 11,
      "ImageOrientationPatient": [1.0, 0.0, 0.0, 0.0, 1.0, 0.0],
      "ImagePositionPatient": [-655.18069982529, -675.00238704681, -43.440963745117],
      "ImageType": [
        "ORIGINAL",
        "PRIMARY",
        "M",
        "ND",
        "NORM",
        "MOSAIC"
],
      "ImagedNucleus": "1H",
      "ImagingFrequency": 123.223092,
      "InPlanePhaseEncodingDirection": "COL",
      "MRAcquisitionType": "2D",
      "MagneticFieldStrength": 3.0,
      "Manufacturer": "SIEMENS",
      "ManufacturerModelName": "TrioTim",
      "Modality": "MR",
      "NumberOfAverages": 1.0,
      "NumberOfPhaseEncodingSteps": 74,
      "PercentPhaseFieldOfView": 100.0,
      "PercentSampling": 100.0,
      "PerformedProcedureStepStartTime": "090943.324000",
      "PhotometricInterpretation": "MONOCHROME2",
      "PixelBandwidth": 2815.0,
      "PixelRepresentation": 0,
      "PixelSpacing": [2.972972869873, 2.972972869873],
      "ProtocolName": "RestingState",
      "RepetitionTime": 2000.0,
      "Rows": 444,
      "SAR": 0.13988600729441,
      "SamplesPerPixel": 1,
      "ScanOptions": "FS",
      "ScanningSequence": "EP",
      "SequenceName": "*epfid2d1_74",
      "SequenceVariant": "SK",
      "SeriesDescription": "RestingState",
      "SeriesNumber": 3,
      "SeriesTime": "100955.510000",
      "SliceLocation": -43.440963745117,
      "SliceThickness": 4.0,
      "SmallestImagePixelValue": 0,
      "SoftwareVersions": "syngo MR B19",
      "SpacingBetweenSlices": 4.0,
      "SpecificCharacterSet": "ISO_IR 100",
      "StudyID": "1",
      "StudyTime": "090943.246000",
      "TransmitCoilName": "Body",
      "VariableFlipAngleFlag": "N",
      "WindowCenterWidthExplanation": "Algo1",
      "dBdt": 0.0},
    "slices": {}
  },
  "time": {
    "samples": {
      "AcquisitionNumber": [1, 2, 3, 4, 5, 6, 7, 8, 9, 10, 11, 12, 13, 14, 15, 16, 17, 18, 19, 20, 21, 22, 23, 24, 25, 26, 27, 28, 29, 30, 31, 32, 33, 34, 35, 36, 37, 38, 39, 40, 41, 42, 43, 44, 45, 46, 47, 48, 49, 50, 51, 52, 53, 54, 55, 56, 57, 58, 59, 60, 61, 62, 63, 64, 65, 66, 67, 68, 69, 70, 71, 72, 73, 74, 75, 76, 77, 78, 79, 80, 81, 82, 83, 84, 85, 86, 87, 88, 89, 90, 91, 92, 93, 94, 95, 96, 97, 98, 99, 100, 101, 102, 103, 104, 105, 106, 107, 108, 109, 110, 111, 112, 113, 114, 115, 116, 117, 118, 119, 120, 121, 122, 123, 124, 125, 126, 127, 128, 129, 130, 131, 132, 133, 134, 135, 136, 137, 138, 139, 140, 141, 142, 143, 144, 145, 146, 147, 148, 149, 150, 151, 152, 153, 154, 155, 156, 157, 158, 159, 160, 161, 162, 163, 164, 165, 166, 167, 168, 169, 170, 171, 172, 173, 174, 175, 176, 177, 178, 179, 180, 181, 182, 183, 184, 185, 186, 187, 188, 189, 190, 191, 192, 193, 194, 195, 196, 197, 198, 199, 200, 201, 202, 203, 204, 205, 206, 207, 208, 209, 210, 211, 212, 213, 214, 215, 216, 217, 218, 219, 220, 221, 222, 223, 224, 225, 226, 227, 228, 229, 230, 231, 232, 233, 234, 235, 236, 237, 238, 239, 240, 241, 242, 243, 244, 245, 246, 247, 248, 249, 250, 251, 252, 253, 254, 255, 256, 257, 258, 259, 260, 261, 262, 263, 264, 265, 266, 267, 268, 269, 270, 271, 272, 273, 274, 275, 276, 277, 278, 279, 280, 281, 282, 283, 284, 285, 286, 287, 288, 289, 290, 291, 292, 293, 294, 295, 296, 297, 298, 299, 300],
      "AcquisitionTime": ["100904.640000", "100906.647500", "100908.657500", "100910.665000", "100912.672500", "100914.680000", "100916.687500", "100918.697500", "100920.705000", "100922.712500", "100924.720000", "100926.727500", "100928.737500", "100930.745000", "100932.752500", "100934.760000", "100936.770000", "100938.777500", "100940.785000", "100942.792500", "100944.800000", "100946.810000", "100948.817500", "100950.825000", "100952.832500", "100954.840000", "100956.850000", "100958.857500", "101000.865000", "101002.872500", "101004.882500", "101006.890000", "101008.897500", "101010.905000", "101012.912500", "101014.922500", "101016.930000", "101018.937500", "101020.945000", "101022.952500", "101024.962500", "101026.970000", "101028.977500", "101030.985000", "101032.995000", "101035.002500", "101037.010000", "101039.017500", "101041.025000", "101043.035000", "101045.042500", "101047.050000", "101049.057500", "101051.065000", "101053.075000", "101055.082500", "101057.090000", "101059.097500", "101101.105000", "101103.115000", "101105.122500", "101107.130000", "101109.137500", "101111.147500", "101113.155000", "101115.162500", "101117.170000", "101119.177500", "101121.187500", "101123.195000", "101125.202500", "101127.210000", "101129.217500", "101131.227500", "101133.235000", "101135.242500", "101137.250000", "101139.260000", "101141.267500", "101143.275000", "101145.282500", "101147.290000", "101149.300000", "101151.307500", "101153.315000", "101155.322500", "101157.330000", "101159.340000", "101201.347500", "101203.355000", "101205.362500", "101207.372500", "101209.380000", "101211.387500", "101213.395000", "101215.402500", "101217.412500", "101219.420000", "101221.427500", "101223.435000", "101225.442500", "101227.452500", "101229.460000", "101231.467500", "101233.475000", "101235.485000", "101237.492500", "101239.500000", "101241.507500", "101243.515000", "101245.525000", "101247.532500", "101249.540000", "101251.547500", "101253.555000", "101255.565000", "101257.572500", "101259.580000", "101301.587500", "101303.595000", "101305.605000", "101307.612500", "101309.620000", "101311.627500", "101313.637500", "101315.645000", "101317.652500", "101319.660000", "101321.667500", "101323.677500", "101325.685000", "101327.692500", "101329.700000", "101331.707500", "101333.717500", "101335.725000", "101337.732500", "101339.740000", "101341.750000", "101343.757500", "101345.765000", "101347.772500", "101349.780000", "101351.790000", "101353.797500", "101355.805000", "101357.812500", "101359.820000", "101401.830000", "101403.837500", "101405.845000", "101407.852500", "101409.862500", "101411.870000", "101413.877500", "101415.885000", "101417.892500", "101419.902500", "101421.910000", "101423.917500", "101425.925000", "101427.932500", "101429.942500", "101431.950000", "101433.957500", "101435.965000", "101437.972500", "101439.982500", "101441.990000", "101443.997500", "101446.005000", "101448.015000", "101450.022500", "101452.030000", "101454.037500", "101456.045000", "101458.055000", "101500.062500", "101502.070000", "101504.077500", "101506.085000", "101508.095000", "101510.102500", "101512.110000", "101514.117500", "101516.127500", "101518.135000", "101520.142500", "101522.150000", "101524.157500", "101526.167500", "101528.175000", "101530.182500", "101532.190000", "101534.197500", "101536.207500", "101538.215000", "101540.222500", "101542.230000", "101544.240000", "101546.247500", "101548.255000", "101550.262500", "101552.270000", "101554.280000", "101556.287500", "101558.295000", "101600.302500", "101602.310000", "101604.320000", "101606.327500", "101608.335000", "101610.342500", "101612.350000", "101614.360000", "101616.367500", "101618.375000", "101620.382500", "101622.392500", "101624.400000", "101626.407500", "101628.415000", "101630.422500", "101632.432500", "101634.440000", "101636.447500", "101638.455000", "101640.462500", "101642.472500", "101644.480000", "101646.487500", "101648.495000", "101650.505000", "101652.512500", "101654.520000", "101656.527500", "101658.535000", "101700.545000", "101702.552500", "101704.560000", "101706.567500", "101708.575000", "101710.585000", "101712.592500", "101714.600000", "101716.607500", "101718.617500", "101720.625000", "101722.632500", "101724.640000", "101726.647500", "101728.657500", "101730.665000", "101732.672500", "101734.680000", "101736.687500", "101738.697500", "101740.705000", "101742.712500", "101744.720000", "101746.727500", "101748.737500", "101750.745000", "101752.752500", "101754.760000", "101756.770000", "101758.777500", "101800.785000", "101802.792500", "101804.800000", "101806.810000", "101808.817500", "101810.825000", "101812.832500", "101814.840000", "101816.850000", "101818.857500", "101820.865000", "101822.872500", "101824.882500", "101826.890000", "101828.897500", "101830.905000", "101832.912500", "101834.922500", "101836.930000", "101838.937500", "101840.945000", "101842.952500", "101844.962500", "101846.970000", "101848.977500", "101850.985000", "101852.995000", "101855.002500", "101857.010000", "101859.017500", "101901.025000", "101903.035000", "101905.042500"],
      "ContentTime": ["100955.512000", "100955.515000", "100955.517000", "100955.520000", "100955.522000", "100955.525000", "100955.530000", "100955.537000", "100955.540000", "100955.540000", "100955.542000", "100955.545000", "100955.547000", "100955.547000", "100955.557000", "100955.560000", "100955.560000", "100955.562000", "100955.565000", "100955.567000", "100955.567000", "100955.570000", "100955.572000", "100955.575000", "100955.575000", "101035.508000", "101035.510000", "101035.513000", "101035.515000", "101035.518000", "101035.518000", "101035.520000", "101035.523000", "101035.525000", "101035.528000", "101035.528000", "101035.530000", "101035.533000", "101035.535000", "101035.535000", "101035.543000", "101035.545000", "101035.545000", "101035.548000", "101035.550000", "101115.509000", "101115.514000", "101115.514000", "101115.516000", "101115.519000", "101115.521000", "101115.524000", "101115.526000", "101115.526000", "101115.529000", "101115.531000", "101115.534000", "101115.534000", "101115.536000", "101115.539000", "101115.541000", "101115.541000", "101115.544000", "101115.546000", "101115.549000", "101155.512000", "101155.512000", "101155.514000", "101155.517000", "101155.519000", "101155.522000", "101155.522000", "101155.524000", "101155.527000", "101155.529000", "101155.529000", "101155.532000", "101155.534000", "101155.537000", "101155.537000", "101155.539000", "101155.542000", "101155.544000", "101155.547000", "101155.547000", "101235.507000", "101235.510000", "101235.512000", "101235.515000", "101235.517000", "101235.517000", "101235.520000", "101235.522000", "101235.525000", "101235.527000", "101235.527000", "101235.530000", "101235.532000", "101235.535000", "101235.535000", "101235.537000", "101235.540000", "101235.542000", "101235.542000", "101235.545000", "101315.508000", "101315.510000", "101315.513000", "101315.515000", "101315.518000", "101315.520000", "101315.523000", "101315.523000", "101315.525000", "101315.528000", "101315.530000", "101315.530000", "101315.533000", "101315.535000", "101315.538000", "101315.538000", "101315.540000", "101315.543000", "101315.545000", "101315.548000", "101355.508000", "101355.511000", "101355.513000", "101355.516000", "101355.518000", "101355.521000", "101355.521000", "101355.523000", "101355.526000", "101355.528000", "101355.528000", "101355.531000", "101355.533000", "101355.536000", "101355.538000", "101355.538000", "101355.541000", "101355.543000", "101355.546000", "101355.546000", "101435.509000", "101435.512000", "101435.514000", "101435.517000", "101435.519000", "101435.522000", "101435.524000", "101435.524000", "101435.527000", "101435.529000", "101435.532000", "101435.532000", "101435.534000", "101435.537000", "101435.539000", "101435.542000", "101435.542000", "101435.544000", "101435.547000", "101435.549000", "101515.507000", "101515.510000", "101515.512000", "101515.515000", "101515.517000", "101515.520000", "101515.520000", "101515.522000", "101515.525000", "101515.527000", "101515.527000", "101515.530000", "101515.532000", "101515.540000", "101515.542000", "101515.542000", "101515.545000", "101515.547000", "101515.550000", "101515.550000", "101555.508000", "101555.510000", "101555.513000", "101555.515000", "101555.518000", "101555.518000", "101555.520000", "101555.523000", "101555.525000", "101555.528000", "101555.528000", "101555.530000", "101555.533000", "101555.535000", "101555.535000", "101555.538000", "101555.540000", "101555.543000", "101555.543000", "101555.545000", "101635.511000", "101635.511000", "101635.521000", "101635.523000", "101635.526000", "101635.528000", "101635.528000", "101635.531000", "101635.533000", "101635.536000", "101635.536000", "101635.538000", "101635.541000", "101635.543000", "101635.543000", "101635.546000", "101635.548000", "101635.551000", "101635.551000", "101635.553000", "101715.509000", "101715.512000", "101715.514000", "101715.517000", "101715.519000", "101715.522000", "101715.522000", "101715.524000", "101715.527000", "101715.529000", "101715.529000", "101715.532000", "101715.534000", "101715.537000", "101715.539000", "101715.539000", "101715.542000", "101715.544000", "101715.547000", "101715.547000", "101755.507000", "101755.510000", "101755.512000", "101755.515000", "101755.517000", "101755.520000", "101755.522000", "101755.522000", "101755.525000", "101755.527000", "101755.530000", "101755.530000", "101755.532000", "101755.535000", "101755.537000", "101755.537000", "101755.540000", "101755.542000", "101755.545000", "101755.545000", "101835.508000", "101835.510000", "101835.513000", "101835.515000", "101835.518000", "101835.520000", "101835.523000", "101835.523000", "101835.525000", "101835.528000", "101835.530000", "101835.530000", "101835.533000", "101835.535000", "101835.538000", "101835.538000", "101835.540000", "101835.543000", "101835.545000", "101835.548000", "101903.718000", "101903.721000", "101903.723000", "101903.726000", "101903.728000", "101903.728000", "101903.731000", "101903.733000", "101903.736000", "101903.738000", "101903.738000", "101903.741000", "101903.743000", "101903.746000", "101903.746000"],
      "InstanceCreationTime": ["100955.512000", "100955.515000", "100955.517000", "100955.520000", "100955.522000", "100955.525000", "100955.530000", "100955.537000", "100955.540000", "100955.540000", "100955.542000", "100955.545000", "100955.547000", "100955.547000", "100955.557000", "100955.560000", "100955.560000", "100955.562000", "100955.565000", "100955.567000", "100955.567000", "100955.570000", "100955.572000", "100955.575000", "100955.575000", "101035.508000", "101035.510000", "101035.513000", "101035.515000", "101035.518000", "101035.518000", "101035.520000", "101035.523000", "101035.525000", "101035.528000", "101035.528000", "101035.530000", "101035.533000", "101035.535000", "101035.535000", "101035.543000", "101035.545000", "101035.545000", "101035.548000", "101035.550000", "101115.509000", "101115.514000", "101115.514000", "101115.516000", "101115.519000", "101115.521000", "101115.524000", "101115.526000", "101115.526000", "101115.529000", "101115.531000", "101115.534000", "101115.534000", "101115.536000", "101115.539000", "101115.541000", "101115.541000", "101115.544000", "101115.546000", "101115.549000", "101155.512000", "101155.512000", "101155.514000", "101155.517000", "101155.519000", "101155.522000", "101155.522000", "101155.524000", "101155.527000", "101155.529000", "101155.529000", "101155.532000", "101155.534000", "101155.537000", "101155.537000", "101155.539000", "101155.542000", "101155.544000", "101155.547000", "101155.547000", "101235.507000", "101235.510000", "101235.512000", "101235.515000", "101235.517000", "101235.517000", "101235.520000", "101235.522000", "101235.525000", "101235.527000", "101235.527000", "101235.530000", "101235.532000", "101235.535000", "101235.535000", "101235.537000", "101235.540000", "101235.542000", "101235.542000", "101235.545000", "101315.508000", "101315.510000", "101315.513000", "101315.515000", "101315.518000", "101315.520000", "101315.523000", "101315.523000", "101315.525000", "101315.528000", "101315.530000", "101315.530000", "101315.533000", "101315.535000", "101315.538000", "101315.538000", "101315.540000", "101315.543000", "101315.545000", "101315.548000", "101355.508000", "101355.511000", "101355.513000", "101355.516000", "101355.518000", "101355.521000", "101355.521000", "101355.523000", "101355.526000", "101355.528000", "101355.528000", "101355.531000", "101355.533000", "101355.536000", "101355.538000", "101355.538000", "101355.541000", "101355.543000", "101355.546000", "101355.546000", "101435.509000", "101435.512000", "101435.514000", "101435.517000", "101435.519000", "101435.522000", "101435.524000", "101435.524000", "101435.527000", "101435.529000", "101435.532000", "101435.532000", "101435.534000", "101435.537000", "101435.539000", "101435.542000", "101435.542000", "101435.544000", "101435.547000", "101435.549000", "101515.507000", "101515.510000", "101515.512000", "101515.515000", "101515.517000", "101515.520000", "101515.520000", "101515.522000", "101515.525000", "101515.527000", "101515.527000", "101515.530000", "101515.532000", "101515.540000", "101515.542000", "101515.542000", "101515.545000", "101515.547000", "101515.550000", "101515.550000", "101555.508000", "101555.510000", "101555.513000", "101555.515000", "101555.518000", "101555.518000", "101555.520000", "101555.523000", "101555.525000", "101555.528000", "101555.528000", "101555.530000", "101555.533000", "101555.535000", "101555.535000", "101555.538000", "101555.540000", "101555.543000", "101555.543000", "101555.545000", "101635.511000", "101635.511000", "101635.521000", "101635.523000", "101635.526000", "101635.528000", "101635.528000", "101635.531000", "101635.533000", "101635.536000", "101635.536000", "101635.538000", "101635.541000", "101635.543000", "101635.543000", "101635.546000", "101635.548000", "101635.551000", "101635.551000", "101635.553000", "101715.509000", "101715.512000", "101715.514000", "101715.517000", "101715.519000", "101715.522000", "101715.522000", "101715.524000", "101715.527000", "101715.529000", "101715.529000", "101715.532000", "101715.534000", "101715.537000", "101715.539000", "101715.539000", "101715.542000", "101715.544000", "101715.547000", "101715.547000", "101755.507000", "101755.510000", "101755.512000", "101755.515000", "101755.517000", "101755.520000", "101755.522000", "101755.522000", "101755.525000", "101755.527000", "101755.530000", "101755.530000", "101755.532000", "101755.535000", "101755.537000", "101755.537000", "101755.540000", "101755.542000", "101755.545000", "101755.545000", "101835.508000", "101835.510000", "101835.513000", "101835.515000", "101835.518000", "101835.520000", "101835.523000", "101835.523000", "101835.525000", "101835.528000", "101835.530000", "101835.530000", "101835.533000", "101835.535000", "101835.538000", "101835.538000", "101835.540000", "101835.543000", "101835.545000", "101835.548000", "101903.718000", "101903.721000", "101903.723000", "101903.726000", "101903.728000", "101903.728000", "101903.731000", "101903.733000", "101903.736000", "101903.738000", "101903.738000", "101903.741000", "101903.743000", "101903.746000", "101903.746000"],
      "InstanceNumber": [1, 2, 3, 4, 5, 6, 7, 8, 9, 10, 11, 12, 13, 14, 15, 16, 17, 18, 19, 20, 21, 22, 23, 24, 25, 26, 27, 28, 29, 30, 31, 32, 33, 34, 35, 36, 37, 38, 39, 40, 41, 42, 43, 44, 45, 46, 47, 48, 49, 50, 51, 52, 53, 54, 55, 56, 57, 58, 59, 60, 61, 62, 63, 64, 65, 66, 67, 68, 69, 70, 71, 72, 73, 74, 75, 76, 77, 78, 79, 80, 81, 82, 83, 84, 85, 86, 87, 88, 89, 90, 91, 92, 93, 94, 95, 96, 97, 98, 99, 100, 101, 102, 103, 104, 105, 106, 107, 108, 109, 110, 111, 112, 113, 114, 115, 116, 117, 118, 119, 120, 121, 122, 123, 124, 125, 126, 127, 128, 129, 130, 131, 132, 133, 134, 135, 136, 137, 138, 139, 140, 141, 142, 143, 144, 145, 146, 147, 148, 149, 150, 151, 152, 153, 154, 155, 156, 157, 158, 159, 160, 161, 162, 163, 164, 165, 166, 167, 168, 169, 170, 171, 172, 173, 174, 175, 176, 177, 178, 179, 180, 181, 182, 183, 184, 185, 186, 187, 188, 189, 190, 191, 192, 193, 194, 195, 196, 197, 198, 199, 200, 201, 202, 203, 204, 205, 206, 207, 208, 209, 210, 211, 212, 213, 214, 215, 216, 217, 218, 219, 220, 221, 222, 223, 224, 225, 226, 227, 228, 229, 230, 231, 232, 233, 234, 235, 236, 237, 238, 239, 240, 241, 242, 243, 244, 245, 246, 247, 248, 249, 250, 251, 252, 253, 254, 255, 256, 257, 258, 259, 260, 261, 262, 263, 264, 265, 266, 267, 268, 269, 270, 271, 272, 273, 274, 275, 276, 277, 278, 279, 280, 281, 282, 283, 284, 285, 286, 287, 288, 289, 290, 291, 292, 293, 294, 295, 296, 297, 298, 299, 300],
      "LargestImagePixelValue": [1907, 1852, 1822, 1739, 1738, 1700, 1781, 1792, 1857, 1845, 1773, 1741, 1688, 1814, 1786, 1850, 1792, 1781, 1710, 1801, 1836, 1856, 1840, 1753, 1760, 1818, 1874, 1766, 1874, 1757, 1706, 1819, 1773, 1873, 1805, 1769, 1742, 1834, 1863, 1864, 1792, 1759, 1871, 1846, 1889, 1809, 1753, 1769, 1685, 1791, 1777, 1777, 1837, 1725, 1753, 1801, 1831, 1864, 1784, 1752, 1765, 1822, 1883, 1824, 1787, 1770, 1743, 1794, 1861, 1865, 1778, 1763, 1817, 1840, 1844, 1793, 1789, 1720, 1837, 1809, 1837, 1773, 1757, 1813, 1848, 1806, 1793, 1749, 1791, 1801, 1786, 1797, 1840, 1758, 1734, 1718, 1816, 1778, 1826, 1716, 1777, 1861, 1840, 1776, 1763, 1852, 1861, 1823, 1792, 1763, 1718, 1806, 1808, 1820, 1828, 1746, 1740, 1822, 1813, 1775, 1971, 1749, 1795, 1791, 1821, 1819, 1852, 1835, 1861, 1788, 1718, 1752, 1715, 1818, 1838, 1788, 1818, 1783, 1762, 1764, 1820, 1822, 1781, 1783, 1784, 1816, 1845, 1769, 1766, 1817, 1831, 1811, 1808, 1874, 1733, 1811, 1778, 1848, 1805, 1733, 1771, 1777, 1832, 1791, 1773, 1800, 1848, 1838, 1793, 1805, 1842, 1859, 1904, 1887, 1695, 1819, 1838, 1812, 1871, 1782, 1813, 1833, 1881, 1763, 1807, 1844, 1828, 1804, 1758, 1861, 1845, 1872, 1740, 1786, 1854, 1830, 1911, 1779, 1852, 1881, 1822, 1769, 1776, 1852, 1806, 1811, 1779, 1844, 1868, 1805, 1960, 1793, 1840, 1853, 1928, 1786, 1834, 1861, 1827, 1808, 1832, 1870, 1888, 1802, 1866, 1780, 1951, 1842, 1954, 1740, 1756, 1824, 1841, 1830, 1790, 1747, 1833, 1829, 1858, 1919, 1770, 1755, 1838, 1830, 1805, 1907, 1789, 1822, 1847, 1845, 1835, 1849, 1828, 1859, 1834, 1793, 1804, 1835, 1839, 1830, 1865, 1872, 1759, 1899, 1865, 1844, 1811, 1841, 1829, 1875, 1865, 1954, 1830, 1850, 1780, 2102, 1805, 1879, 1805, 1882, 1873, 1785, 1844, 1848, 1843, 1847, 1819, 1872, 1858, 1911, 1841, 1848, 1854, 1815, 1818, 1786, 1879, 1815, 1843, 1897],
      "WindowCenter": [644.0, 638.0, 635.0, 634.0, 634.0, 634.0, 634.0, 634.0, 636.0, 634.0, 635.0, 634.0, 634.0, 634.0, 634.0, 634.0, 634.0, 634.0, 634.0, 635.0, 635.0, 636.0, 636.0, 636.0, 635.0, 636.0, 637.0, 636.0, 636.0, 635.0, 635.0, 635.0, 635.0, 636.0, 634.0, 635.0, 634.0, 635.0, 636.0, 636.0, 636.0, 636.0, 638.0, 637.0, 638.0, 638.0, 638.0, 639.0, 639.0, 638.0, 637.0, 635.0, 635.0, 634.0, 634.0, 635.0, 635.0, 635.0, 634.0, 635.0, 635.0, 636.0, 636.0, 637.0, 637.0, 638.0, 637.0, 638.0, 638.0, 638.0, 637.0, 637.0, 638.0, 639.0, 639.0, 639.0, 638.0, 638.0, 639.0, 639.0, 638.0, 638.0, 637.0, 637.0, 637.0, 637.0, 638.0, 638.0, 639.0, 638.0, 637.0, 636.0, 636.0, 635.0, 635.0, 635.0, 636.0, 636.0, 636.0, 636.0, 636.0, 637.0, 638.0, 638.0, 638.0, 639.0, 640.0, 641.0, 641.0, 641.0, 642.0, 642.0, 641.0, 640.0, 640.0, 640.0, 640.0, 640.0, 640.0, 640.0, 641.0, 638.0, 637.0, 637.0, 637.0, 637.0, 638.0, 638.0, 640.0, 641.0, 639.0, 639.0, 638.0, 638.0, 638.0, 638.0, 638.0, 639.0, 639.0, 638.0, 639.0, 639.0, 639.0, 640.0, 640.0, 641.0, 641.0, 640.0, 640.0, 641.0, 642.0, 642.0, 642.0, 642.0, 642.0, 640.0, 640.0, 639.0, 638.0, 638.0, 638.0, 639.0, 639.0, 639.0, 639.0, 639.0, 640.0, 641.0, 641.0, 642.0, 643.0, 643.0, 644.0, 644.0, 641.0, 640.0, 640.0, 640.0, 641.0, 639.0, 641.0, 641.0, 642.0, 641.0, 641.0, 642.0, 642.0, 641.0, 641.0, 642.0, 642.0, 642.0, 641.0, 641.0, 641.0, 641.0, 641.0, 640.0, 641.0, 642.0, 642.0, 642.0, 642.0, 643.0, 641.0, 642.0, 641.0, 642.0, 642.0, 642.0, 643.0, 642.0, 642.0, 640.0, 641.0, 639.0, 640.0, 640.0, 641.0, 641.0, 642.0, 643.0, 643.0, 644.0, 646.0, 646.0, 646.0, 643.0, 643.0, 641.0, 641.0, 641.0, 642.0, 642.0, 641.0, 641.0, 642.0, 641.0, 642.0, 643.0, 642.0, 642.0, 643.0, 643.0, 643.0, 644.0, 644.0, 645.0, 645.0, 645.0, 645.0, 644.0, 643.0, 644.0, 644.0, 643.0, 644.0, 644.0, 644.0, 644.0, 644.0, 644.0, 644.0, 644.0, 643.0, 642.0, 642.0, 642.0, 643.0, 643.0, 643.0, 644.0, 644.0, 644.0, 643.0, 643.0, 641.0, 642.0, 642.0, 642.0, 642.0, 641.0, 641.0, 642.0, 642.0, 643.0, 643.0, 644.0, 645.0, 646.0, 645.0, 646.0, 646.0, 646.0, 645.0, 645.0, 646.0, 645.0, 644.0, 644.0],
      "WindowWidth": [1375.0, 1360.0, 1352.0, 1350.0, 1348.0, 1350.0, 1350.0, 1350.0, 1353.0, 1350.0, 1352.0, 1349.0, 1349.0, 1349.0, 1350.0, 1350.0, 1350.0, 1350.0, 1349.0, 1352.0, 1352.0, 1355.0, 1353.0, 1354.0, 1352.0, 1354.0, 1356.0, 1355.0, 1354.0, 1351.0, 1351.0, 1352.0, 1352.0, 1353.0, 1351.0, 1351.0, 1349.0, 1353.0, 1354.0, 1354.0, 1354.0, 1355.0, 1357.0, 1357.0, 1359.0, 1359.0, 1360.0, 1361.0, 1361.0, 1358.0, 1357.0, 1353.0, 1352.0, 1351.0, 1349.0, 1351.0, 1351.0, 1352.0, 1351.0, 1352.0, 1352.0, 1355.0, 1355.0, 1357.0, 1358.0, 1358.0, 1357.0, 1358.0, 1358.0, 1359.0, 1358.0, 1358.0, 1359.0, 1361.0, 1361.0, 1361.0, 1360.0, 1360.0, 1361.0, 1362.0, 1360.0, 1360.0, 1356.0, 1357.0, 1357.0, 1358.0, 1361.0, 1358.0, 1362.0, 1359.0, 1356.0, 1353.0, 1356.0, 1352.0, 1352.0, 1351.0, 1355.0, 1354.0, 1355.0, 1354.0, 1355.0, 1356.0, 1359.0, 1359.0, 1359.0, 1362.0, 1364.0, 1366.0, 1367.0, 1367.0, 1368.0, 1368.0, 1365.0, 1365.0, 1365.0, 1363.0, 1363.0, 1363.0, 1364.0, 1364.0, 1367.0, 1360.0, 1358.0, 1358.0, 1358.0, 1357.0, 1358.0, 1360.0, 1364.0, 1366.0, 1363.0, 1361.0, 1360.0, 1360.0, 1360.0, 1360.0, 1361.0, 1362.0, 1361.0, 1360.0, 1361.0, 1362.0, 1363.0, 1364.0, 1365.0, 1366.0, 1365.0, 1364.0, 1364.0, 1366.0, 1368.0, 1368.0, 1369.0, 1370.0, 1368.0, 1365.0, 1363.0, 1361.0, 1359.0, 1360.0, 1359.0, 1361.0, 1361.0, 1362.0, 1361.0, 1361.0, 1364.0, 1366.0, 1367.0, 1368.0, 1370.0, 1372.0, 1375.0, 1373.0, 1366.0, 1365.0, 1364.0, 1365.0, 1367.0, 1363.0, 1365.0, 1366.0, 1369.0, 1367.0, 1367.0, 1368.0, 1368.0, 1366.0, 1365.0, 1368.0, 1370.0, 1370.0, 1366.0, 1367.0, 1367.0, 1367.0, 1367.0, 1365.0, 1365.0, 1368.0, 1369.0, 1369.0, 1369.0, 1371.0, 1368.0, 1369.0, 1367.0, 1369.0, 1369.0, 1369.0, 1372.0, 1370.0, 1368.0, 1365.0, 1366.0, 1362.0, 1363.0, 1365.0, 1366.0, 1367.0, 1369.0, 1370.0, 1372.0, 1373.0, 1380.0, 1379.0, 1378.0, 1371.0, 1371.0, 1366.0, 1367.0, 1367.0, 1368.0, 1368.0, 1368.0, 1367.0, 1369.0, 1368.0, 1370.0, 1371.0, 1370.0, 1370.0, 1370.0, 1371.0, 1371.0, 1374.0, 1374.0, 1375.0, 1376.0, 1376.0, 1375.0, 1373.0, 1372.0, 1373.0, 1373.0, 1373.0, 1374.0, 1374.0, 1374.0, 1374.0, 1375.0, 1375.0, 1374.0, 1374.0, 1371.0, 1370.0, 1369.0, 1370.0, 1370.0, 1372.0, 1372.0, 1374.0, 1373.0, 1373.0, 1371.0, 1372.0, 1368.0, 1370.0, 1370.0, 1370.0, 1370.0, 1366.0, 1367.0, 1369.0, 1370.0, 1371.0, 1371.0, 1374.0, 1375.0, 1379.0, 1377.0, 1378.0, 1378.0, 1378.0, 1377.0, 1376.0, 1379.0, 1376.0, 1375.0, 1373.0]
    },
    "slices": {}
  }
}