{
  "AcquisitionMatrixPE": 74,
  "AcquisitionNumber": 1,
  "AcquisitionTime": "13:49:10.670000",
  "BandwidthPerPixelPhaseEncode": 27.579,
  "BaseResolution": 74,
  "BodyPartExamined": "HEAD",
  "CoilString": "t:HEA;HEP",
  "ConversionSoftware": "dcm2niix",
  "ConversionSoftwareVersion": "v1.0.20190410  GCC6.3.0",
  "DerivedVendorReportedEchoSpacing": 0.000489993,
  "DeviceSerialNumber": "35256",
  "DwellTime": 2.4e-06,
  "EchoTime": 0.03,
  "EffectiveEchoSpacing": 0.000489993,
  "FlipAngle": 70,
  "ImageOrientationPatientDICOM": [1, 0, 0, 0, 1, 0],
  "ImageType": [
    "ORIGINAL",
    "PRIMARY",
    "M",
    "ND",
    "NORM",
    "MOSAIC"
],
  "ImagingFrequency": 123.223,
  "InPlanePhaseEncodingDirectionDICOM": "COL",
  "InstitutionAddress": "East_Lee_St._2907_Greensboro_NC_US_27401",
  "InstitutionName": "JSNN",
  "InstitutionalDepartmentName": "Department",
  "MRAcquisitionType": "2D",
  "MagneticFieldStrength": 3,
  "Manufacturer": "Siemens",
  "ManufacturersModelName": "TrioTim",
  "Modality": "MR",
  "PartialFourier": 1,
  "PatientPosition": "HFS",
  "PercentPhaseFOV": 100,
  "PhaseEncodingDirection": "j-",
  "PhaseEncodingSteps": 74,
  "PhaseResolution": 1,
  "PixelBandwidth": 2815,
  "ProcedureStepDescription": "head_Cassidy",
  "ProtocolName": "RestingState",
  "PulseSequenceDetails": "%SiemensSeq%_ep2d_bold",
  "ReceiveCoilName": "HeadMatrix",
  "ReconMatrixPE": 74,
  "RepetitionTime": 2,
  "SAR": 0.120724,
  "ScanOptions": "FS",
  "ScanningSequence": "EP",
  "SequenceName": "_epfid2d1_74",
  "SequenceVariant": "SK",
  "SeriesDescription": "RestingState",
  "SeriesNumber": 3,
  "ShimSetting": [1352, 10587, -8991, 539, 42, -294, 32, 67],
  "SliceThickness": 4,
  "SliceTiming": [1.945, 1.8825, 1.82, 1.7575, 1.695, 1.6325, 1.5675, 1.505, 1.4425, 1.38, 1.3175, 1.255, 1.1925, 1.13, 1.0675, 1.005, 0.9425, 0.8775, 0.815, 0.7525, 0.69, 0.6275, 0.565, 0.5025, 0.44, 0.3775, 0.315, 0.2525, 0.1875, 0.125, 0.0625, 0],
  "SoftwareVersions": "syngo_MR_B19",
  "SpacingBetweenSlices": 4,
  "StationName": "JSNNMRI",
  "TaskName": "rest",
  "TotalReadoutTime": 0.0357695,
  "TxRefAmp": 311.178,
  "dcmmeta_affine": [
    [-2.972972869873047, 0.0, 0.0, 105.18071746826172],
    [0.0, 2.972972869873047, 0.0, -98.8101577758789],
    [0.0, 0.0, 4.0, -89.70602416992188],
    [0.0, 0.0, 0.0, 1.0]
],
  "dcmmeta_reorient_transform": [
    [0.0, -1.0, 0.0, 73.0],
    [1.0, 0.0, 0.0, 0.0],
    [0.0, 0.0, 1.0, 0.0],
    [0.0, 0.0, 0.0, 1.0]
],
  "dcmmeta_shape": [74, 74, 32, 300],
  "dcmmeta_slice_dim": 2,
  "dcmmeta_version": 0.6,
  "global": {
    "const": {
      "AcquisitionMatrix": [74, 0, 0, 74],
      "AngioFlag": "N",
      "BitsAllocated": 16,
      "BitsStored": 12,
      "BodyPartExamined": "HEAD",
      "Columns": 444,
      "EchoNumbers": 1,
      "EchoTime": 30.0,
      "EchoTrainLength": 1,
      "FlipAngle": 70.0,
      "HighBit": 11,
      "ImageOrientationPatient": [1.0, 0.0, 0.0, 0.0, 1.0, 0.0],
      "ImagePositionPatient": [-655.18069982529, -668.21684455872, -89.706024169922],
      "ImageType": [
        "ORIGINAL",
        "PRIMARY",
        "M",
        "ND",
        "NORM",
        "MOSAIC"
],
      "ImagedNucleus": "1H",
      "ImagingFrequency": 123.223301,
      "InPlanePhaseEncodingDirection": "COL",
      "MRAcquisitionType": "2D",
      "MagneticFieldStrength": 3.0,
      "Manufacturer": "SIEMENS",
      "ManufacturerModelName": "TrioTim",
      "Modality": "MR",
      "NumberOfAverages": 1.0,
      "NumberOfPhaseEncodingSteps": 74,
      "PercentPhaseFieldOfView": 100.0,
      "PercentSampling": 100.0,
      "PerformedProcedureStepStartTime": "130357.558000",
      "PhotometricInterpretation": "MONOCHROME2",
      "PixelBandwidth": 2815.0,
      "PixelRepresentation": 0,
      "PixelSpacing": [2.972972869873, 2.972972869873],
      "ProtocolName": "RestingState",
      "RepetitionTime": 2000.0,
      "Rows": 444,
      "SAR": 0.12072413107408,
      "SamplesPerPixel": 1,
      "ScanOptions": "FS",
      "ScanningSequence": "EP",
      "SequenceName": "*epfid2d1_74",
      "SequenceVariant": "SK",
      "SeriesDescription": "RestingState",
      "SeriesNumber": 3,
      "SeriesTime": "134954.064000",
      "SliceLocation": -89.706024169922,
      "SliceThickness": 4.0,
      "SmallestImagePixelValue": 0,
      "SoftwareVersions": "syngo MR B19",
      "SpacingBetweenSlices": 4.0,
      "SpecificCharacterSet": "ISO_IR 100",
      "StudyID": "1",
      "StudyTime": "130357.496000",
      "TransmitCoilName": "Body",
      "VariableFlipAngleFlag": "N",
      "WindowCenterWidthExplanation": "Algo1",
      "dBdt": 0.0},
    "slices": {}
  },
  "time": {
    "samples": {
      "AcquisitionNumber": [1, 2, 3, 4, 5, 6, 7, 8, 9, 10, 11, 12, 13, 14, 15, 16, 17, 18, 19, 20, 21, 22, 23, 24, 25, 26, 27, 28, 29, 30, 31, 32, 33, 34, 35, 36, 37, 38, 39, 40, 41, 42, 43, 44, 45, 46, 47, 48, 49, 50, 51, 52, 53, 54, 55, 56, 57, 58, 59, 60, 61, 62, 63, 64, 65, 66, 67, 68, 69, 70, 71, 72, 73, 74, 75, 76, 77, 78, 79, 80, 81, 82, 83, 84, 85, 86, 87, 88, 89, 90, 91, 92, 93, 94, 95, 96, 97, 98, 99, 100, 101, 102, 103, 104, 105, 106, 107, 108, 109, 110, 111, 112, 113, 114, 115, 116, 117, 118, 119, 120, 121, 122, 123, 124, 125, 126, 127, 128, 129, 130, 131, 132, 133, 134, 135, 136, 137, 138, 139, 140, 141, 142, 143, 144, 145, 146, 147, 148, 149, 150, 151, 152, 153, 154, 155, 156, 157, 158, 159, 160, 161, 162, 163, 164, 165, 166, 167, 168, 169, 170, 171, 172, 173, 174, 175, 176, 177, 178, 179, 180, 181, 182, 183, 184, 185, 186, 187, 188, 189, 190, 191, 192, 193, 194, 195, 196, 197, 198, 199, 200, 201, 202, 203, 204, 205, 206, 207, 208, 209, 210, 211, 212, 213, 214, 215, 216, 217, 218, 219, 220, 221, 222, 223, 224, 225, 226, 227, 228, 229, 230, 231, 232, 233, 234, 235, 236, 237, 238, 239, 240, 241, 242, 243, 244, 245, 246, 247, 248, 249, 250, 251, 252, 253, 254, 255, 256, 257, 258, 259, 260, 261, 262, 263, 264, 265, 266, 267, 268, 269, 270, 271, 272, 273, 274, 275, 276, 277, 278, 279, 280, 281, 282, 283, 284, 285, 286, 287, 288, 289, 290, 291, 292, 293, 294, 295, 296, 297, 298, 299, 300],
      "AcquisitionTime": ["134910.670000", "134912.677500", "134914.685000", "134916.695000", "134918.702500", "134920.710000", "134922.717500", "134924.725000", "134926.735000", "134928.742500", "134930.750000", "134932.757500", "134934.767500", "134936.775000", "134938.782500", "134940.790000", "134942.797500", "134944.807500", "134946.815000", "134948.822500", "134950.830000", "134952.837500", "134954.847500", "134956.855000", "134958.862500", "135000.870000", "135002.880000", "135004.887500", "135006.895000", "135008.902500", "135010.910000", "135012.920000", "135014.927500", "135016.935000", "135018.942500", "135020.950000", "135022.960000", "135024.967500", "135026.975000", "135028.982500", "135030.992500", "135033.000000", "135035.007500", "135037.015000", "135039.022500", "135041.032500", "135043.040000", "135045.047500", "135047.055000", "135049.062500", "135051.072500", "135053.080000", "135055.087500", "135057.095000", "135059.102500", "135101.112500", "135103.120000", "135105.127500", "135107.135000", "135109.145000", "135111.152500", "135113.160000", "135115.167500", "135117.175000", "135119.185000", "135121.192500", "135123.200000", "135125.207500", "135127.215000", "135129.225000", "135131.232500", "135133.240000", "135135.247500", "135137.257500", "135139.265000", "135141.272500", "135143.280000", "135145.287500", "135147.297500", "135149.305000", "135151.312500", "135153.320000", "135155.327500", "135157.337500", "135159.345000", "135201.352500", "135203.360000", "135205.370000", "135207.377500", "135209.385000", "135211.392500", "135213.400000", "135215.410000", "135217.417500", "135219.425000", "135221.432500", "135223.440000", "135225.450000", "135227.457500", "135229.465000", "135231.472500", "135233.480000", "135235.490000", "135237.497500", "135239.505000", "135241.512500", "135243.522500", "135245.530000", "135247.537500", "135249.545000", "135251.552500", "135253.562500", "135255.570000", "135257.577500", "135259.585000", "135301.592500", "135303.602500", "135305.610000", "135307.617500", "135309.625000", "135311.635000", "135313.642500", "135315.650000", "135317.657500", "135319.665000", "135321.675000", "135323.682500", "135325.690000", "135327.697500", "135329.705000", "135331.715000", "135333.722500", "135335.730000", "135337.737500", "135339.747500", "135341.755000", "135343.762500", "135345.770000", "135347.777500", "135349.787500", "135351.795000", "135353.802500", "135355.810000", "135357.817500", "135359.827500", "135401.835000", "135403.842500", "135405.850000", "135407.857500", "135409.867500", "135411.875000", "135413.882500", "135415.890000", "135417.900000", "135419.907500", "135421.915000", "135423.922500", "135425.930000", "135427.940000", "135429.947500", "135431.955000", "135433.962500", "135435.970000", "135437.980000", "135439.987500", "135441.995000", "135444.002500", "135446.012500", "135448.020000", "135450.027500", "135452.035000", "135454.042500", "135456.052500", "135458.060000", "135500.067500", "135502.075000", "135504.082500", "135506.092500", "135508.100000", "135510.107500", "135512.115000", "135514.125000", "135516.132500", "135518.140000", "135520.147500", "135522.155000", "135524.165000", "135526.172500", "135528.180000", "135530.187500", "135532.195000", "135534.205000", "135536.212500", "135538.220000", "135540.227500", "135542.237500", "135544.245000", "135546.252500", "135548.260000", "135550.267500", "135552.277500", "135554.285000", "135556.292500", "135558.300000", "135600.307500", "135602.317500", "135604.325000", "135606.332500", "135608.340000", "135610.347500", "135612.357500", "135614.365000", "135616.372500", "135618.380000", "135620.390000", "135622.397500", "135624.405000", "135626.412500", "135628.420000", "135630.430000", "135632.437500", "135634.445000", "135636.452500", "135638.460000", "135640.470000", "135642.477500", "135644.485000", "135646.492500", "135648.502500", "135650.510000", "135652.517500", "135654.525000", "135656.532500", "135658.542500", "135700.550000", "135702.557500", "135704.565000", "135706.572500", "135708.582500", "135710.590000", "135712.597500", "135714.605000", "135716.615000", "135718.622500", "135720.630000", "135722.637500", "135724.645000", "135726.655000", "135728.662500", "135730.670000", "135732.677500", "135734.685000", "135736.695000", "135738.702500", "135740.710000", "135742.717500", "135744.725000", "135746.735000", "135748.742500", "135750.750000", "135752.757500", "135754.767500", "135756.775000", "135758.782500", "135800.790000", "135802.797500", "135804.807500", "135806.815000", "135808.822500", "135810.830000", "135812.837500", "135814.847500", "135816.855000", "135818.862500", "135820.870000", "135822.880000", "135824.887500", "135826.895000", "135828.902500", "135830.910000", "135832.920000", "135834.927500", "135836.935000", "135838.942500", "135840.950000", "135842.960000", "135844.967500", "135846.975000", "135848.982500", "135850.992500", "135853.000000", "135855.007500", "135857.015000", "135859.022500", "135901.032500", "135903.040000", "135905.047500", "135907.055000", "135909.062500", "135911.072500"],
      "ContentTime": ["134954.066000", "134954.069000", "134954.071000", "134954.074000", "134954.076000", "134954.076000", "134954.079000", "134954.081000", "134954.084000", "134954.084000", "134954.086000", "134954.089000", "134954.091000", "134954.094000", "134954.104000", "134954.111000", "134954.114000", "134954.114000", "134954.116000", "134954.119000", "134954.121000", "135034.059000", "135034.062000", "135034.064000", "135034.067000", "135034.069000", "135034.069000", "135034.072000", "135034.074000", "135034.077000", "135034.077000", "135034.079000", "135034.082000", "135034.084000", "135034.084000", "135034.087000", "135034.089000", "135034.092000", "135034.094000", "135034.094000", "135034.097000", "135114.060000", "135114.062000", "135114.065000", "135114.067000", "135114.070000", "135114.070000", "135114.072000", "135114.085000", "135114.085000", "135114.087000", "135114.090000", "135114.092000", "135114.092000", "135114.095000", "135114.097000", "135114.100000", "135114.102000", "135114.102000", "135114.105000", "135114.107000", "135154.060000", "135154.063000", "135154.065000", "135154.068000", "135154.070000", "135154.070000", "135154.073000", "135154.075000", "135154.078000", "135154.078000", "135154.080000", "135154.083000", "135154.085000", "135154.088000", "135154.088000", "135154.090000", "135154.093000", "135154.095000", "135154.095000", "135154.098000", "135234.061000", "135234.064000", "135234.066000", "135234.069000", "135234.071000", "135234.071000", "135234.074000", "135234.076000", "135234.079000", "135234.079000", "135234.081000", "135234.084000", "135234.086000", "135234.086000", "135234.089000", "135234.091000", "135234.094000", "135234.096000", "135234.096000", "135234.099000", "135314.059000", "135314.062000", "135314.064000", "135314.067000", "135314.069000", "135314.069000", "135314.072000", "135314.079000", "135314.082000", "135314.082000", "135314.084000", "135314.087000", "135314.089000", "135314.089000", "135314.092000", "135314.094000", "135314.097000", "135314.099000", "135314.099000", "135314.102000", "135354.060000", "135354.062000", "135354.065000", "135354.067000", "135354.070000", "135354.070000", "135354.072000", "135354.075000", "135354.077000", "135354.077000", "135354.080000", "135354.082000", "135354.085000", "135354.085000", "135354.087000", "135354.090000", "135354.092000", "135354.095000", "135354.095000", "135354.097000", "135434.060000", "135434.063000", "135434.065000", "135434.068000", "135434.070000", "135434.070000", "135434.073000", "135434.075000", "135434.078000", "135434.078000", "135434.080000", "135434.083000", "135434.085000", "135434.085000", "135434.088000", "135434.090000", "135434.093000", "135434.095000", "135434.095000", "135434.098000", "135514.061000", "135514.064000", "135514.066000", "135514.069000", "135514.071000", "135514.071000", "135514.074000", "135514.076000", "135514.079000", "135514.086000", "135514.089000", "135514.091000", "135514.091000", "135514.094000", "135514.096000", "135514.099000", "135514.099000", "135514.101000", "135514.104000", "135514.106000", "135554.059000", "135554.062000", "135554.064000", "135554.067000", "135554.069000", "135554.069000", "135554.072000", "135554.074000", "135554.077000", "135554.077000", "135554.079000", "135554.082000", "135554.084000", "135554.084000", "135554.087000", "135554.089000", "135554.092000", "135554.094000", "135554.094000", "135554.097000", "135634.060000", "135634.062000", "135634.065000", "135634.067000", "135634.070000", "135634.070000", "135634.072000", "135634.075000", "135634.077000", "135634.077000", "135634.080000", "135634.082000", "135634.085000", "135634.085000", "135634.087000", "135634.090000", "135634.092000", "135634.095000", "135634.095000", "135634.097000", "135714.060000", "135714.063000", "135714.065000", "135714.068000", "135714.070000", "135714.070000", "135714.073000", "135714.075000", "135714.078000", "135714.078000", "135714.080000", "135714.083000", "135714.085000", "135714.085000", "135714.088000", "135714.090000", "135714.093000", "135714.095000", "135714.095000", "135714.098000", "135734.063000", "135734.063000", "135734.066000", "135734.068000", "135734.071000", "135734.071000", "135734.073000", "135734.076000", "135734.078000", "135734.078000", "135814.059000", "135814.061000", "135814.064000", "135814.066000", "135814.069000", "135814.069000", "135814.071000", "135814.074000", "135814.076000", "135814.076000", "135814.079000", "135814.081000", "135814.084000", "135814.084000", "135814.086000", "135814.089000", "135814.091000", "135814.094000", "135814.094000", "135814.096000", "135854.059000", "135854.062000", "135854.064000", "135854.067000", "135854.069000", "135854.069000", "135854.072000", "135854.074000", "135854.077000", "135854.077000", "135854.079000", "135854.082000", "135854.084000", "135854.084000", "135854.087000", "135854.089000", "135854.092000", "135854.094000", "135854.094000", "135854.097000", "135910.140000", "135910.142000", "135910.142000", "135910.145000", "135910.147000", "135910.150000", "135910.150000", "135910.152000", "135910.155000"],
      "InstanceCreationTime": ["134954.066000", "134954.069000", "134954.071000", "134954.074000", "134954.076000", "134954.076000", "134954.079000", "134954.081000", "134954.084000", "134954.084000", "134954.086000", "134954.089000", "134954.091000", "134954.094000", "134954.104000", "134954.111000", "134954.114000", "134954.114000", "134954.116000", "134954.119000", "134954.121000", "135034.059000", "135034.062000", "135034.064000", "135034.067000", "135034.069000", "135034.069000", "135034.072000", "135034.074000", "135034.077000", "135034.077000", "135034.079000", "135034.082000", "135034.084000", "135034.084000", "135034.087000", "135034.089000", "135034.092000", "135034.094000", "135034.094000", "135034.097000", "135114.060000", "135114.062000", "135114.065000", "135114.067000", "135114.070000", "135114.070000", "135114.072000", "135114.085000", "135114.085000", "135114.087000", "135114.090000", "135114.092000", "135114.092000", "135114.095000", "135114.097000", "135114.100000", "135114.102000", "135114.102000", "135114.105000", "135114.107000", "135154.060000", "135154.063000", "135154.065000", "135154.068000", "135154.070000", "135154.070000", "135154.073000", "135154.075000", "135154.078000", "135154.078000", "135154.080000", "135154.083000", "135154.085000", "135154.088000", "135154.088000", "135154.090000", "135154.093000", "135154.095000", "135154.095000", "135154.098000", "135234.061000", "135234.064000", "135234.066000", "135234.069000", "135234.071000", "135234.071000", "135234.074000", "135234.076000", "135234.079000", "135234.079000", "135234.081000", "135234.084000", "135234.086000", "135234.086000", "135234.089000", "135234.091000", "135234.094000", "135234.096000", "135234.096000", "135234.099000", "135314.059000", "135314.062000", "135314.064000", "135314.067000", "135314.069000", "135314.069000", "135314.072000", "135314.079000", "135314.082000", "135314.082000", "135314.084000", "135314.087000", "135314.089000", "135314.089000", "135314.092000", "135314.094000", "135314.097000", "135314.099000", "135314.099000", "135314.102000", "135354.060000", "135354.062000", "135354.065000", "135354.067000", "135354.070000", "135354.070000", "135354.072000", "135354.075000", "135354.077000", "135354.077000", "135354.080000", "135354.082000", "135354.085000", "135354.085000", "135354.087000", "135354.090000", "135354.092000", "135354.095000", "135354.095000", "135354.097000", "135434.060000", "135434.063000", "135434.065000", "135434.068000", "135434.070000", "135434.070000", "135434.073000", "135434.075000", "135434.078000", "135434.078000", "135434.080000", "135434.083000", "135434.085000", "135434.085000", "135434.088000", "135434.090000", "135434.093000", "135434.095000", "135434.095000", "135434.098000", "135514.061000", "135514.064000", "135514.066000", "135514.069000", "135514.071000", "135514.071000", "135514.074000", "135514.076000", "135514.079000", "135514.086000", "135514.089000", "135514.091000", "135514.091000", "135514.094000", "135514.096000", "135514.099000", "135514.099000", "135514.101000", "135514.104000", "135514.106000", "135554.059000", "135554.062000", "135554.064000", "135554.067000", "135554.069000", "135554.069000", "135554.072000", "135554.074000", "135554.077000", "135554.077000", "135554.079000", "135554.082000", "135554.084000", "135554.084000", "135554.087000", "135554.089000", "135554.092000", "135554.094000", "135554.094000", "135554.097000", "135634.060000", "135634.062000", "135634.065000", "135634.067000", "135634.070000", "135634.070000", "135634.072000", "135634.075000", "135634.077000", "135634.077000", "135634.080000", "135634.082000", "135634.085000", "135634.085000", "135634.087000", "135634.090000", "135634.092000", "135634.095000", "135634.095000", "135634.097000", "135714.060000", "135714.063000", "135714.065000", "135714.068000", "135714.070000", "135714.070000", "135714.073000", "135714.075000", "135714.078000", "135714.078000", "135714.080000", "135714.083000", "135714.085000", "135714.085000", "135714.088000", "135714.090000", "135714.093000", "135714.095000", "135714.095000", "135714.098000", "135734.063000", "135734.063000", "135734.066000", "135734.068000", "135734.071000", "135734.071000", "135734.073000", "135734.076000", "135734.078000", "135734.078000", "135814.059000", "135814.061000", "135814.064000", "135814.066000", "135814.069000", "135814.069000", "135814.071000", "135814.074000", "135814.076000", "135814.076000", "135814.079000", "135814.081000", "135814.084000", "135814.084000", "135814.086000", "135814.089000", "135814.091000", "135814.094000", "135814.094000", "135814.096000", "135854.059000", "135854.062000", "135854.064000", "135854.067000", "135854.069000", "135854.069000", "135854.072000", "135854.074000", "135854.077000", "135854.077000", "135854.079000", "135854.082000", "135854.084000", "135854.084000", "135854.087000", "135854.089000", "135854.092000", "135854.094000", "135854.094000", "135854.097000", "135910.140000", "135910.142000", "135910.142000", "135910.145000", "135910.147000", "135910.150000", "135910.150000", "135910.152000", "135910.155000"],
      "InstanceNumber": [1, 2, 3, 4, 5, 6, 7, 8, 9, 10, 11, 12, 13, 14, 15, 16, 17, 18, 19, 20, 21, 22, 23, 24, 25, 26, 27, 28, 29, 30, 31, 32, 33, 34, 35, 36, 37, 38, 39, 40, 41, 42, 43, 44, 45, 46, 47, 48, 49, 50, 51, 52, 53, 54, 55, 56, 57, 58, 59, 60, 61, 62, 63, 64, 65, 66, 67, 68, 69, 70, 71, 72, 73, 74, 75, 76, 77, 78, 79, 80, 81, 82, 83, 84, 85, 86, 87, 88, 89, 90, 91, 92, 93, 94, 95, 96, 97, 98, 99, 100, 101, 102, 103, 104, 105, 106, 107, 108, 109, 110, 111, 112, 113, 114, 115, 116, 117, 118, 119, 120, 121, 122, 123, 124, 125, 126, 127, 128, 129, 130, 131, 132, 133, 134, 135, 136, 137, 138, 139, 140, 141, 142, 143, 144, 145, 146, 147, 148, 149, 150, 151, 152, 153, 154, 155, 156, 157, 158, 159, 160, 161, 162, 163, 164, 165, 166, 167, 168, 169, 170, 171, 172, 173, 174, 175, 176, 177, 178, 179, 180, 181, 182, 183, 184, 185, 186, 187, 188, 189, 190, 191, 192, 193, 194, 195, 196, 197, 198, 199, 200, 201, 202, 203, 204, 205, 206, 207, 208, 209, 210, 211, 212, 213, 214, 215, 216, 217, 218, 219, 220, 221, 222, 223, 224, 225, 226, 227, 228, 229, 230, 231, 232, 233, 234, 235, 236, 237, 238, 239, 240, 241, 242, 243, 244, 245, 246, 247, 248, 249, 250, 251, 252, 253, 254, 255, 256, 257, 258, 259, 260, 261, 262, 263, 264, 265, 266, 267, 268, 269, 270, 271, 272, 273, 274, 275, 276, 277, 278, 279, 280, 281, 282, 283, 284, 285, 286, 287, 288, 289, 290, 291, 292, 293, 294, 295, 296, 297, 298, 299, 300],
      "LargestImagePixelValue": [1792, 1751, 1764, 1739, 1657, 1688, 1634, 1641, 1691, 1794, 1761, 1589, 1513, 1504, 1544, 1501, 1345, 1309, 1264, 1246, 1276, 1929, 1745, 1576, 1499, 1462, 1475, 1414, 1252, 1298, 1346, 1388, 1455, 1689, 1659, 1698, 1625, 1690, 1695, 1698, 1663, 1651, 1658, 1600, 1538, 1494, 1485, 1521, 1529, 1397, 1334, 1403, 1384, 1602, 1641, 1696, 1649, 1678, 1693, 1698, 1715, 1629, 1629, 1674, 1570, 1599, 1614, 1609, 1612, 1668, 1674, 1705, 1721, 1674, 1637, 1601, 1549, 1587, 1550, 1513, 1507, 1523, 1540, 1511, 1386, 1355, 1346, 1246, 1253, 1235, 1273, 1525, 1765, 1696, 1666, 1664, 1682, 1683, 1679, 1691, 1617, 1713, 1788, 1755, 1309, 1340, 1545, 1652, 1632, 1409, 1304, 1608, 1652, 1344, 1730, 1586, 1437, 1250, 1283, 1484, 1862, 1862, 1753, 1708, 1682, 1705, 1691, 1637, 1573, 1553, 1498, 1339, 1248, 1530, 1415, 1556, 1726, 1739, 1625, 1620, 1567, 1530, 1481, 1341, 1331, 1436, 1546, 1670, 1714, 1689, 1675, 1601, 1689, 1676, 1708, 1734, 1756, 1747, 1707, 1647, 1632, 1614, 1606, 1559, 1555, 1582, 1614, 1632, 1511, 1469, 1294, 1283, 1254, 1265, 1264, 1282, 1300, 1355, 1425, 1435, 1806, 1848, 1843, 1798, 1825, 1703, 1343, 1734, 1748, 1734, 1552, 1618, 1676, 1611, 1687, 1730, 1677, 1687, 1713, 1721, 1648, 1588, 1576, 1557, 1579, 1577, 1556, 1601, 1577, 1577, 1622, 1608, 1557, 1485, 1502, 1505, 1519, 1313, 1397, 1240, 1521, 1834, 1756, 1734, 1757, 1484, 1547, 1802, 1816, 1762, 1707, 1653, 1740, 1746, 1698, 1619, 1590, 1544, 1509, 1436, 1290, 1285, 1309, 1317, 1457, 1741, 1382, 1347, 1360, 1321, 1284, 1588, 1914, 1726, 1613, 1612, 1685, 1759, 1713, 1735, 1766, 1906, 1921, 1296, 1296, 1361, 1923, 2242, 1958, 1833, 1715, 1607, 1595, 1657, 1669, 1692, 1721, 1776, 1768, 1617, 1272, 1291, 1678, 2211, 1973, 1842, 1700, 1674, 1744, 1769, 1719, 1758, 1533, 1349, 1395, 1284, 1341, 1322, 1377, 1452],
      "WindowCenter": [561.0, 559.0, 558.0, 558.0, 557.0, 558.0, 558.0, 558.0, 558.0, 559.0, 558.0, 556.0, 556.0, 557.0, 557.0, 556.0, 555.0, 555.0, 555.0, 556.0, 557.0, 561.0, 559.0, 558.0, 558.0, 558.0, 558.0, 558.0, 556.0, 557.0, 558.0, 558.0, 559.0, 560.0, 560.0, 560.0, 559.0, 560.0, 561.0, 561.0, 560.0, 560.0, 560.0, 560.0, 559.0, 559.0, 560.0, 560.0, 559.0, 558.0, 557.0, 558.0, 558.0, 559.0, 559.0, 560.0, 560.0, 560.0, 560.0, 560.0, 561.0, 560.0, 560.0, 561.0, 561.0, 560.0, 561.0, 561.0, 561.0, 561.0, 561.0, 561.0, 561.0, 560.0, 560.0, 560.0, 559.0, 559.0, 560.0, 559.0, 559.0, 560.0, 561.0, 560.0, 559.0, 559.0, 559.0, 558.0, 559.0, 559.0, 559.0, 560.0, 562.0, 561.0, 562.0, 562.0, 561.0, 562.0, 562.0, 562.0, 565.0, 564.0, 563.0, 562.0, 560.0, 562.0, 566.0, 564.0, 563.0, 560.0, 559.0, 562.0, 562.0, 561.0, 564.0, 564.0, 562.0, 561.0, 562.0, 563.0, 564.0, 563.0, 563.0, 563.0, 563.0, 563.0, 563.0, 564.0, 563.0, 563.0, 563.0, 561.0, 560.0, 563.0, 563.0, 564.0, 566.0, 566.0, 564.0, 564.0, 564.0, 564.0, 564.0, 563.0, 563.0, 563.0, 563.0, 564.0, 565.0, 565.0, 565.0, 565.0, 565.0, 565.0, 565.0, 566.0, 565.0, 565.0, 564.0, 564.0, 564.0, 564.0, 565.0, 564.0, 565.0, 565.0, 565.0, 565.0, 564.0, 564.0, 563.0, 563.0, 563.0, 563.0, 563.0, 564.0, 565.0, 565.0, 565.0, 565.0, 567.0, 566.0, 566.0, 565.0, 565.0, 564.0, 563.0, 566.0, 565.0, 565.0, 565.0, 565.0, 565.0, 565.0, 565.0, 565.0, 565.0, 565.0, 566.0, 565.0, 565.0, 565.0, 565.0, 565.0, 566.0, 566.0, 566.0, 566.0, 566.0, 566.0, 567.0, 566.0, 566.0, 565.0, 566.0, 566.0, 566.0, 565.0, 565.0, 564.0, 566.0, 567.0, 567.0, 568.0, 567.0, 567.0, 567.0, 568.0, 568.0, 567.0, 567.0, 566.0, 567.0, 567.0, 567.0, 567.0, 567.0, 567.0, 566.0, 566.0, 566.0, 566.0, 567.0, 567.0, 568.0, 570.0, 568.0, 566.0, 565.0, 564.0, 563.0, 566.0, 567.0, 566.0, 568.0, 567.0, 568.0, 568.0, 569.0, 568.0, 568.0, 569.0, 570.0, 567.0, 567.0, 566.0, 571.0, 570.0, 567.0, 565.0, 565.0, 565.0, 566.0, 567.0, 568.0, 569.0, 569.0, 572.0, 568.0, 568.0, 566.0, 567.0, 569.0, 571.0, 569.0, 567.0, 566.0, 567.0, 568.0, 569.0, 569.0, 569.0, 568.0, 567.0, 567.0, 566.0, 566.0, 565.0, 566.0, 567.0],
      "WindowWidth": [1178.0, 1172.0, 1171.0, 1170.0, 1169.0, 1171.0, 1171.0, 1170.0, 1171.0, 1172.0, 1171.0, 1167.0, 1168.0, 1169.0, 1169.0, 1167.0, 1166.0, 1166.0, 1166.0, 1167.0, 1170.0, 1177.0, 1174.0, 1172.0, 1171.0, 1172.0, 1172.0, 1171.0, 1168.0, 1169.0, 1171.0, 1172.0, 1173.0, 1176.0, 1175.0, 1175.0, 1174.0, 1176.0, 1177.0, 1176.0, 1175.0, 1175.0, 1175.0, 1175.0, 1173.0, 1173.0, 1175.0, 1175.0, 1174.0, 1171.0, 1170.0, 1171.0, 1171.0, 1173.0, 1173.0, 1175.0, 1175.0, 1176.0, 1176.0, 1176.0, 1176.0, 1176.0, 1175.0, 1177.0, 1177.0, 1176.0, 1177.0, 1177.0, 1178.0, 1178.0, 1177.0, 1177.0, 1178.0, 1176.0, 1175.0, 1175.0, 1174.0, 1174.0, 1175.0, 1174.0, 1175.0, 1176.0, 1177.0, 1176.0, 1175.0, 1174.0, 1174.0, 1172.0, 1174.0, 1174.0, 1175.0, 1177.0, 1179.0, 1178.0, 1179.0, 1179.0, 1178.0, 1180.0, 1181.0, 1180.0, 1185.0, 1184.0, 1181.0, 1180.0, 1176.0, 1182.0, 1189.0, 1185.0, 1182.0, 1176.0, 1175.0, 1180.0, 1180.0, 1178.0, 1184.0, 1184.0, 1181.0, 1179.0, 1181.0, 1181.0, 1184.0, 1183.0, 1182.0, 1182.0, 1181.0, 1181.0, 1183.0, 1184.0, 1183.0, 1183.0, 1182.0, 1179.0, 1177.0, 1183.0, 1182.0, 1185.0, 1187.0, 1188.0, 1184.0, 1184.0, 1185.0, 1185.0, 1184.0, 1182.0, 1182.0, 1183.0, 1183.0, 1185.0, 1186.0, 1185.0, 1185.0, 1186.0, 1187.0, 1186.0, 1187.0, 1188.0, 1186.0, 1185.0, 1185.0, 1185.0, 1184.0, 1185.0, 1186.0, 1185.0, 1186.0, 1187.0, 1186.0, 1186.0, 1184.0, 1184.0, 1182.0, 1183.0, 1183.0, 1184.0, 1184.0, 1185.0, 1187.0, 1188.0, 1187.0, 1188.0, 1191.0, 1189.0, 1189.0, 1187.0, 1186.0, 1185.0, 1183.0, 1188.0, 1187.0, 1187.0, 1186.0, 1186.0, 1186.0, 1186.0, 1188.0, 1187.0, 1186.0, 1187.0, 1188.0, 1187.0, 1187.0, 1187.0, 1186.0, 1188.0, 1188.0, 1188.0, 1188.0, 1188.0, 1188.0, 1189.0, 1190.0, 1189.0, 1188.0, 1188.0, 1189.0, 1190.0, 1190.0, 1187.0, 1187.0, 1185.0, 1189.0, 1191.0, 1190.0, 1193.0, 1190.0, 1192.0, 1191.0, 1193.0, 1192.0, 1190.0, 1191.0, 1190.0, 1190.0, 1191.0, 1191.0, 1190.0, 1190.0, 1191.0, 1190.0, 1189.0, 1189.0, 1189.0, 1191.0, 1192.0, 1195.0, 1197.0, 1193.0, 1190.0, 1188.0, 1186.0, 1184.0, 1189.0, 1191.0, 1189.0, 1194.0, 1192.0, 1193.0, 1194.0, 1194.0, 1193.0, 1193.0, 1195.0, 1196.0, 1192.0, 1191.0, 1190.0, 1199.0, 1198.0, 1190.0, 1187.0, 1186.0, 1186.0, 1188.0, 1191.0, 1193.0, 1194.0, 1195.0, 1201.0, 1193.0, 1193.0, 1189.0, 1191.0, 1196.0, 1198.0, 1194.0, 1191.0, 1189.0, 1190.0, 1193.0, 1195.0, 1194.0, 1195.0, 1193.0, 1192.0, 1192.0, 1189.0, 1189.0, 1189.0, 1189.0, 1190.0]
    },
    "slices": {}
  }
}